# OpenSignals Text File Format. Version 1
# {"98:D3:71:FE:4A:A1": {"position": 0, "device": "bitalino_rev", "device name": "98:D3:71:FE:4A:A1", "device connection": "BTH98:D3:71:FE:4A:A1", "sampling rate": 1000, "resolution": [4, 1, 1, 1, 1, 10, 10, 10, 10, 6, 6], "firmware version": 1282, "comments": "", "keywords": "", "mode": 0, "sync interval": 2, "date": "2026-2-10", "time": "19:42:50.441", "channels": [1, 2, 3, 4, 5, 6], "sensor": ["RAW", "RAW", "RAW", "RAW", "RAW", "RAW"], "label": ["A1", "A2", "A3", "A4", "A5", "A6"], "column": ["nSeq", "I1", "I2", "O1", "O2", "A1", "A2", "A3", "A4", "A5", "A6"], "special": [{}, {}, {}, {}, {}, {}], "digital IO": [0, 0, 1, 1]}}
# EndOfHeader
0	0	0	0	0	512	1	0	0	0	0	
1	0	0	0	0	511	1	0	0	0	0	
2	0	0	0	0	511	1	0	0	0	0	
3	0	0	0	0	509	1	0	0	0	0	
4	0	0	0	0	508	0	0	0	0	0	
5	0	0	0	0	506	1	0	0	0	0	
6	0	0	0	0	504	1	0	0	0	0	
7	0	0	0	0	503	2	0	0	0	0	
8	0	0	0	0	503	1	0	0	0	0	
9	0	0	0	0	502	1	0	0	0	0	
10	0	0	0	0	500	1	0	0	0	0	
11	0	0	0	0	499	1	0	0	0	0	
12	0	0	0	0	498	1	0	0	0	0	
13	0	0	0	0	497	0	0	0	0	0	
14	0	0	0	0	496	1	0	0	0	0	
15	0	0	0	0	496	2	0	0	0	0	
0	0	0	0	0	496	1	0	0	0	0	
1	0	0	0	0	496	1	0	0	0	0	
2	0	0	0	0	496	1	0	0	0	0	
3	0	0	0	0	496	1	0	0	0	0	
4	0	0	0	0	496	1	0	0	0	0	
5	0	0	0	0	496	0	0	0	0	0	
6	0	0	0	0	496	1	0	0	0	0	
7	0	0	0	0	496	2	0	0	0	0	
8	0	0	0	0	496	1	0	0	0	0	
9	0	0	0	0	496	1	0	0	0	0	
10	0	0	0	0	498	1	0	0	0	0	
11	0	0	0	0	498	1	0	0	0	0	
12	0	0	0	0	498	1	0	0	0	0	
13	0	0	0	0	498	1	0	0	0	0	
14	0	0	0	0	497	1	0	0	0	0	
15	0	0	0	0	497	1	0	0	0	0	
0	0	0	0	0	498	1	0	0	0	0	
1	0	0	0	0	499	1	0	0	0	0	
2	0	0	0	0	499	1	0	0	0	0	
3	0	0	0	0	501	1	0	0	0	0	
4	0	0	0	0	503	1	0	0	0	0	
5	0	0	0	0	504	1	0	0	0	0	
6	0	0	0	0	506	1	0	0	0	0	
7	0	0	0	0	507	1	0	0	0	0	
8	0	0	0	0	508	1	0	0	0	0	
9	0	0	0	0	509	1	0	0	0	0	
10	0	0	0	0	510	1	0	0	0	0	
11	0	0	0	0	511	1	0	0	0	0	
12	0	0	0	0	511	1	0	0	0	0	
13	0	0	0	0	512	1	0	0	0	0	
14	0	0	0	0	512	1	0	0	0	0	
15	0	0	0	0	514	1	0	0	0	0	
0	0	0	0	0	515	1	0	0	0	0	
1	0	0	0	0	516	1	0	0	0	0	
2	0	0	0	0	516	1	0	0	0	0	
3	0	0	0	0	516	1	0	0	0	0	
4	0	0	0	0	516	1	0	0	0	0	
5	0	0	0	0	517	1	0	0	0	0	
6	0	0	0	0	518	1	0	0	0	0	
7	0	0	0	0	520	2	0	0	0	0	
8	0	0	0	0	522	1	0	0	0	0	
9	0	0	0	0	524	1	0	0	0	0	
10	0	0	0	0	526	1	0	0	0	0	
11	0	0	0	0	528	1	0	0	0	0	
12	0	0	0	0	528	1	0	0	0	0	
13	0	0	0	0	528	1	0	0	0	0	
14	0	0	0	0	528	1	0	0	0	0	
15	0	0	0	0	529	2	0	0	0	0	
0	0	0	0	0	529	1	0	0	0	0	
1	0	0	0	0	529	1	0	0	0	0	
2	0	0	0	0	529	1	0	0	0	0	
3	0	0	0	0	528	1	0	0	0	0	
4	0	0	0	0	527	1	0	0	0	0	
5	0	0	0	0	527	1	0	0	0	0	
6	0	0	0	0	527	1	0	0	0	0	
7	0	0	0	0	527	2	0	0	0	0	
8	0	0	0	0	526	1	0	0	0	0	
9	0	0	0	0	526	1	0	0	0	0	
10	0	0	0	0	526	1	0	0	0	0	
11	0	0	0	0	526	1	0	0	0	0	
12	0	0	0	0	527	0	0	0	0	0	
13	0	0	0	0	528	1	0	0	0	0	
14	0	0	0	0	529	1	0	0	0	0	
15	0	0	0	0	528	2	0	0	0	0	
0	0	0	0	0	527	1	0	0	0	0	
1	0	0	0	0	527	1	0	0	0	0	
2	0	0	0	0	526	1	0	0	0	0	
3	0	0	0	0	526	1	0	0	0	0	
4	0	0	0	0	526	0	0	0	0	0	
5	0	0	0	0	525	1	0	0	0	0	
6	0	0	0	0	524	1	0	0	0	0	
7	0	0	0	0	524	2	0	0	0	0	
8	0	0	0	0	524	1	0	0	0	0	
9	0	0	0	0	524	1	0	0	0	0	
10	0	0	0	0	524	1	0	0	0	0	
11	0	0	0	0	525	1	0	0	0	0	
12	0	0	0	0	526	0	0	0	0	0	
13	0	0	0	0	526	1	0	0	0	0	
14	0	0	0	0	525	1	0	0	0	0	
15	0	0	0	0	525	2	0	0	0	0	
0	0	0	0	0	525	1	0	0	0	0	
1	0	0	0	0	525	1	0	0	0	0	
2	0	0	0	0	526	1	0	0	0	0	
3	0	0	0	0	527	1	0	0	0	0	
4	0	0	0	0	528	1	0	0	0	0	
5	0	0	0	0	528	1	0	0	0	0	
6	0	0	0	0	529	1	0	0	0	0	
7	0	0	0	0	529	2	0	0	0	0	
8	0	0	0	0	528	1	0	0	0	0	
9	0	0	0	0	527	1	0	0	0	0	
10	0	0	0	0	527	1	0	0	0	0	
11	0	0	0	0	527	1	0	0	0	0	
12	0	0	0	0	526	1	0	0	0	0	
13	0	0	0	0	526	1	0	0	0	0	
14	0	0	0	0	525	1	0	0	0	0	
15	0	0	0	0	525	2	0	0	0	0	
0	0	0	0	0	526	1	0	0	0	0	
1	0	0	0	0	526	1	0	0	0	0	
2	0	0	0	0	525	1	0	0	0	0	
3	0	0	0	0	525	1	0	0	0	0	
4	0	0	0	0	525	1	0	0	0	0	
5	0	0	0	0	525	1	0	0	0	0	
6	0	0	0	0	527	1	0	0	0	0	
7	0	0	0	0	528	2	0	0	0	0	
8	0	0	0	0	529	1	0	0	0	0	
9	0	0	0	0	531	0	0	0	0	0	
10	0	0	0	0	531	1	0	0	0	0	
11	0	0	0	0	532	1	0	0	0	0	
12	0	0	0	0	533	1	0	0	0	0	
13	0	0	0	0	531	1	0	0	0	0	
14	0	0	0	0	531	1	0	0	0	0	
15	0	0	0	0	530	2	0	0	0	0	
0	0	0	0	0	527	1	0	0	0	0	
1	0	0	0	0	524	0	0	0	0	0	
2	0	0	0	0	521	1	0	0	0	0	
3	0	0	0	0	519	1	0	0	0	0	
4	0	0	0	0	515	1	0	0	0	0	
5	0	0	0	0	512	1	0	0	0	0	
6	0	0	0	0	507	1	0	0	0	0	
7	0	0	0	0	502	2	0	0	0	0	
8	0	0	0	0	497	1	0	0	0	0	
9	0	0	0	0	491	0	0	0	0	0	
10	0	0	0	0	483	1	0	0	0	0	
11	0	0	0	0	475	1	0	0	0	0	
12	0	0	0	0	468	1	0	0	0	0	
13	0	0	0	0	459	0	0	0	0	0	
14	0	0	0	0	451	1	0	0	0	0	
15	0	0	0	0	444	1	0	0	0	0	
0	0	0	0	0	439	0	0	0	0	0	
1	0	0	0	0	433	0	0	0	0	0	
2	0	0	0	0	427	0	0	0	0	0	
3	0	0	0	0	423	0	0	0	0	0	
4	0	0	0	0	419	0	0	0	0	0	
5	0	0	0	0	417	0	0	0	0	0	
6	0	0	0	0	415	0	0	0	0	0	
7	0	0	0	0	411	1	0	0	0	0	
8	0	0	0	0	405	0	0	0	0	0	
9	0	0	0	0	399	0	0	0	0	0	
10	0	0	0	0	393	0	0	0	0	0	
11	0	0	0	0	390	0	0	0	0	0	
12	0	0	0	0	395	0	0	0	0	0	
13	0	0	0	0	406	0	0	0	0	0	
14	0	0	0	0	423	0	0	0	0	0	
15	0	0	0	0	444	1	0	0	0	0	
0	0	0	0	0	466	1	0	0	0	0	
1	0	0	0	0	488	0	0	0	0	0	
2	0	0	0	0	508	1	0	0	0	0	
3	0	0	0	0	527	1	0	0	0	0	
4	0	0	0	0	546	1	0	0	0	0	
5	0	0	0	0	563	1	0	0	0	0	
6	0	0	0	0	577	1	0	0	0	0	
7	0	0	0	0	589	2	0	0	0	0	
8	0	0	0	0	598	1	0	0	0	0	
9	0	0	0	0	605	0	0	0	0	0	
10	0	0	0	0	611	1	0	0	0	0	
11	0	0	0	0	617	1	0	0	0	0	
12	0	0	0	0	621	2	0	0	0	0	
13	0	0	0	0	624	2	0	0	0	0	
14	0	0	0	0	627	2	0	0	0	0	
15	0	0	0	0	629	3	0	0	0	0	
0	0	0	0	0	630	1	0	0	0	0	
1	0	0	0	0	631	0	0	0	0	0	
2	0	0	0	0	630	2	0	0	0	0	
3	0	0	0	0	630	2	0	0	0	0	
4	0	0	0	0	628	2	0	0	0	0	
5	0	0	0	0	627	2	0	0	0	0	
6	0	0	0	0	625	2	0	0	0	0	
7	0	0	0	0	623	3	0	0	0	0	
8	0	0	0	0	620	1	0	0	0	0	
9	0	0	0	0	616	2	0	0	0	0	
10	0	0	0	0	611	1	0	0	0	0	
11	0	0	0	0	606	1	0	0	0	0	
12	0	0	0	0	601	1	0	0	0	0	
13	0	0	0	0	594	1	0	0	0	0	
14	0	0	0	0	588	1	0	0	0	0	
15	0	0	0	0	580	2	0	0	0	0	
0	0	0	0	0	572	1	0	0	0	0	
1	0	0	0	0	566	1	0	0	0	0	
2	0	0	0	0	559	1	0	0	0	0	
3	0	0	0	0	551	1	0	0	0	0	
4	0	0	0	0	545	1	0	0	0	0	
5	0	0	0	0	539	1	0	0	0	0	
6	0	0	0	0	533	1	0	0	0	0	
7	0	0	0	0	529	2	0	0	0	0	
8	0	0	0	0	526	1	0	0	0	0	
9	0	0	0	0	523	1	0	0	0	0	
10	0	0	0	0	521	0	0	0	0	0	
11	0	0	0	0	519	1	0	0	0	0	
12	0	0	0	0	519	0	0	0	0	0	
13	0	0	0	0	518	1	0	0	0	0	
14	0	0	0	0	517	1	0	0	0	0	
15	0	0	0	0	515	2	0	0	0	0	
0	0	0	0	0	515	1	0	0	0	0	
1	0	0	0	0	515	1	0	0	0	0	
2	0	0	0	0	514	1	0	0	0	0	
3	0	0	0	0	514	1	0	0	0	0	
4	0	0	0	0	512	0	0	0	0	0	
5	0	0	0	0	511	1	0	0	0	0	
6	0	0	0	0	511	1	0	0	0	0	
7	0	0	0	0	510	2	0	0	0	0	
8	0	0	0	0	510	1	0	0	0	0	
9	0	0	0	0	509	1	0	0	0	0	
10	0	0	0	0	510	1	0	0	0	0	
11	0	0	0	0	510	1	0	0	0	0	
12	0	0	0	0	509	0	0	0	0	0	
13	0	0	0	0	508	1	0	0	0	0	
14	0	0	0	0	508	1	0	0	0	0	
15	0	0	0	0	507	2	0	0	0	0	
0	0	0	0	0	507	1	0	0	0	0	
1	0	0	0	0	506	1	0	0	0	0	
2	0	0	0	0	507	1	0	0	0	0	
3	0	0	0	0	506	1	0	0	0	0	
4	0	0	0	0	506	1	0	0	0	0	
5	0	0	0	0	505	0	0	0	0	0	
6	0	0	0	0	505	1	0	0	0	0	
7	0	0	0	0	505	2	0	0	0	0	
8	0	0	0	0	505	1	0	0	0	0	
9	0	0	0	0	505	1	0	0	0	0	
10	0	0	0	0	504	1	0	0	0	0	
11	0	0	0	0	504	1	0	0	0	0	
12	0	0	0	0	504	1	0	0	0	0	
13	0	0	0	0	504	0	0	0	0	0	
14	0	0	0	0	503	1	0	0	0	0	
15	0	0	0	0	504	2	0	0	0	0	
0	0	0	0	0	504	1	0	0	0	0	
1	0	0	0	0	504	1	0	0	0	0	
2	0	0	0	0	505	1	0	0	0	0	
3	0	0	0	0	505	1	0	0	0	0	
4	0	0	0	0	506	1	0	0	0	0	
5	0	0	0	0	505	0	0	0	0	0	
6	0	0	0	0	504	1	0	0	0	0	
7	0	0	0	0	504	1	0	0	0	0	
8	0	0	0	0	503	1	0	0	0	0	
9	0	0	0	0	501	1	0	0	0	0	
10	0	0	0	0	500	1	0	0	0	0	
11	0	0	0	0	499	1	0	0	0	0	
12	0	0	0	0	499	1	0	0	0	0	
13	0	0	0	0	499	1	0	0	0	0	
14	0	0	0	0	499	1	0	0	0	0	
15	0	0	0	0	500	1	0	0	0	0	
0	0	0	0	0	500	1	0	0	0	0	
1	0	0	0	0	501	1	0	0	0	0	
2	0	0	0	0	501	1	0	0	0	0	
3	0	0	0	0	502	1	0	0	0	0	
4	0	0	0	0	503	1	0	0	0	0	
5	0	0	0	0	504	1	0	0	0	0	
6	0	0	0	0	504	1	0	0	0	0	
7	0	0	0	0	504	1	0	0	0	0	
8	0	0	0	0	506	1	0	0	0	0	
9	0	0	0	0	507	1	0	0	0	0	
10	0	0	0	0	506	1	0	0	0	0	
11	0	0	0	0	506	1	0	0	0	0	
12	0	0	0	0	505	1	0	0	0	0	
13	0	0	0	0	504	0	0	0	0	0	
14	0	0	0	0	504	1	0	0	0	0	
15	0	0	0	0	504	2	0	0	0	0	
0	0	0	0	0	504	1	0	0	0	0	
1	0	0	0	0	504	1	0	0	0	0	
2	0	0	0	0	504	1	0	0	0	0	
3	0	0	0	0	505	1	0	0	0	0	
4	0	0	0	0	505	1	0	0	0	0	
5	0	0	0	0	505	0	0	0	0	0	
6	0	0	0	0	505	1	0	0	0	0	
7	0	0	0	0	505	2	0	0	0	0	
8	0	0	0	0	505	1	0	0	0	0	
9	0	0	0	0	504	1	0	0	0	0	
10	0	0	0	0	504	1	0	0	0	0	
11	0	0	0	0	505	1	0	0	0	0	
12	0	0	0	0	504	1	0	0	0	0	
13	0	0	0	0	505	1	0	0	0	0	
14	0	0	0	0	505	1	0	0	0	0	
15	0	0	0	0	505	2	0	0	0	0	
0	0	0	0	0	506	1	0	0	0	0	
1	0	0	0	0	506	1	0	0	0	0	
2	0	0	0	0	507	1	0	0	0	0	
3	0	0	0	0	508	1	0	0	0	0	
4	0	0	0	0	510	0	0	0	0	0	
5	0	0	0	0	510	1	0	0	0	0	
6	0	0	0	0	510	1	0	0	0	0	
7	0	0	0	0	508	2	0	0	0	0	
8	0	0	0	0	505	1	0	0	0	0	
9	0	0	0	0	503	1	0	0	0	0	
10	0	0	0	0	502	1	0	0	0	0	
11	0	0	0	0	501	1	0	0	0	0	
12	0	0	0	0	501	0	0	0	0	0	
13	0	0	0	0	500	1	0	0	0	0	
14	0	0	0	0	500	1	0	0	0	0	
15	0	0	0	0	500	2	0	0	0	0	
0	0	0	0	0	500	1	0	0	0	0	
1	0	0	0	0	501	1	0	0	0	0	
2	0	0	0	0	500	1	0	0	0	0	
3	0	0	0	0	499	1	0	0	0	0	
4	0	0	0	0	498	0	0	0	0	0	
5	0	0	0	0	499	1	0	0	0	0	
6	0	0	0	0	500	1	0	0	0	0	
7	0	0	0	0	501	2	0	0	0	0	
8	0	0	0	0	501	1	0	0	0	0	
9	0	0	0	0	501	1	0	0	0	0	
10	0	0	0	0	500	0	0	0	0	0	
11	0	0	0	0	500	1	0	0	0	0	
12	0	0	0	0	500	1	0	0	0	0	
13	0	0	0	0	500	1	0	0	0	0	
14	0	0	0	0	500	1	0	0	0	0	
15	0	0	0	0	499	2	0	0	0	0	
0	0	0	0	0	499	1	0	0	0	0	
1	0	0	0	0	499	1	0	0	0	0	
2	0	0	0	0	499	0	0	0	0	0	
3	0	0	0	0	498	1	0	0	0	0	
4	0	0	0	0	498	1	0	0	0	0	
5	0	0	0	0	498	1	0	0	0	0	
6	0	0	0	0	497	1	0	0	0	0	
7	0	0	0	0	497	2	0	0	0	0	
8	0	0	0	0	498	1	0	0	0	0	
9	0	0	0	0	498	1	0	0	0	0	
10	0	0	0	0	499	0	0	0	0	0	
11	0	0	0	0	499	1	0	0	0	0	
12	0	0	0	0	500	1	0	0	0	0	
13	0	0	0	0	499	1	0	0	0	0	
14	0	0	0	0	499	1	0	0	0	0	
15	0	0	0	0	499	2	0	0	0	0	
0	0	0	0	0	499	1	0	0	0	0	
1	0	0	0	0	499	0	0	0	0	0	
2	0	0	0	0	499	1	0	0	0	0	
3	0	0	0	0	499	1	0	0	0	0	
4	0	0	0	0	499	1	0	0	0	0	
5	0	0	0	0	499	1	0	0	0	0	
6	0	0	0	0	500	1	0	0	0	0	
7	0	0	0	0	500	2	0	0	0	0	
8	0	0	0	0	501	1	0	0	0	0	
9	0	0	0	0	501	0	0	0	0	0	
10	0	0	0	0	500	1	0	0	0	0	
11	0	0	0	0	500	1	0	0	0	0	
12	0	0	0	0	499	1	0	0	0	0	
13	0	0	0	0	498	1	0	0	0	0	
14	0	0	0	0	498	1	0	0	0	0	
15	0	0	0	0	499	2	0	0	0	0	
0	0	0	0	0	499	1	0	0	0	0	
1	0	0	0	0	499	0	0	0	0	0	
2	0	0	0	0	498	1	0	0	0	0	
3	0	0	0	0	499	1	0	0	0	0	
4	0	0	0	0	499	1	0	0	0	0	
5	0	0	0	0	499	1	0	0	0	0	
6	0	0	0	0	499	1	0	0	0	0	
7	0	0	0	0	498	1	0	0	0	0	
8	0	0	0	0	499	1	0	0	0	0	
9	0	0	0	0	500	1	0	0	0	0	
10	0	0	0	0	499	1	0	0	0	0	
11	0	0	0	0	499	1	0	0	0	0	
12	0	0	0	0	500	1	0	0	0	0	
13	0	0	0	0	499	1	0	0	0	0	
14	0	0	0	0	498	1	0	0	0	0	
15	0	0	0	0	497	1	0	0	0	0	
0	0	0	0	0	497	1	0	0	0	0	
1	0	0	0	0	497	1	0	0	0	0	
2	0	0	0	0	497	1	0	0	0	0	
3	0	0	0	0	497	1	0	0	0	0	
4	0	0	0	0	497	1	0	0	0	0	
5	0	0	0	0	497	1	0	0	0	0	
6	0	0	0	0	497	1	0	0	0	0	
7	0	0	0	0	497	1	0	0	0	0	
8	0	0	0	0	496	1	0	0	0	0	
9	0	0	0	0	497	1	0	0	0	0	
10	0	0	0	0	499	1	0	0	0	0	
11	0	0	0	0	499	1	0	0	0	0	
12	0	0	0	0	500	1	0	0	0	0	
13	0	0	0	0	500	1	0	0	0	0	
14	0	0	0	0	499	1	0	0	0	0	
15	0	0	0	0	499	2	0	0	0	0	
0	0	0	0	0	499	1	0	0	0	0	
1	0	0	0	0	499	0	0	0	0	0	
2	0	0	0	0	499	1	0	0	0	0	
3	0	0	0	0	499	1	0	0	0	0	
4	0	0	0	0	499	1	0	0	0	0	
5	0	0	0	0	499	1	0	0	0	0	
6	0	0	0	0	499	1	0	0	0	0	
7	0	0	0	0	499	2	0	0	0	0	
8	0	0	0	0	498	1	0	0	0	0	
9	0	0	0	0	499	0	0	0	0	0	
10	0	0	0	0	499	1	0	0	0	0	
11	0	0	0	0	500	1	0	0	0	0	
12	0	0	0	0	502	1	0	0	0	0	
13	0	0	0	0	503	1	0	0	0	0	
14	0	0	0	0	504	1	0	0	0	0	
15	0	0	0	0	504	2	0	0	0	0	
0	0	0	0	0	505	1	0	0	0	0	
1	0	0	0	0	506	1	0	0	0	0	
2	0	0	0	0	507	0	0	0	0	0	
3	0	0	0	0	507	1	0	0	0	0	
4	0	0	0	0	507	1	0	0	0	0	
5	0	0	0	0	508	1	0	0	0	0	
6	0	0	0	0	509	1	0	0	0	0	
7	0	0	0	0	509	2	0	0	0	0	
8	0	0	0	0	510	1	0	0	0	0	
9	0	0	0	0	511	1	0	0	0	0	
10	0	0	0	0	512	0	0	0	0	0	
11	0	0	0	0	513	1	0	0	0	0	
12	0	0	0	0	513	1	0	0	0	0	
13	0	0	0	0	515	1	0	0	0	0	
14	0	0	0	0	516	1	0	0	0	0	
15	0	0	0	0	517	2	0	0	0	0	
0	0	0	0	0	517	1	0	0	0	0	
1	0	0	0	0	518	1	0	0	0	0	
2	0	0	0	0	519	0	0	0	0	0	
3	0	0	0	0	520	1	0	0	0	0	
4	0	0	0	0	522	1	0	0	0	0	
5	0	0	0	0	524	1	0	0	0	0	
6	0	0	0	0	525	1	0	0	0	0	
7	0	0	0	0	526	2	0	0	0	0	
8	0	0	0	0	526	1	0	0	0	0	
9	0	0	0	0	527	1	0	0	0	0	
10	0	0	0	0	527	1	0	0	0	0	
11	0	0	0	0	528	1	0	0	0	0	
12	0	0	0	0	529	0	0	0	0	0	
13	0	0	0	0	529	1	0	0	0	0	
14	0	0	0	0	530	1	0	0	0	0	
15	0	0	0	0	529	2	0	0	0	0	
0	0	0	0	0	528	1	0	0	0	0	
1	0	0	0	0	529	1	0	0	0	0	
2	0	0	0	0	529	1	0	0	0	0	
3	0	0	0	0	530	1	0	0	0	0	
4	0	0	0	0	531	0	0	0	0	0	
5	0	0	0	0	531	1	0	0	0	0	
6	0	0	0	0	532	1	0	0	0	0	
7	0	0	0	0	532	2	0	0	0	0	
8	0	0	0	0	534	1	0	0	0	0	
9	0	0	0	0	535	1	0	0	0	0	
10	0	0	0	0	536	1	0	0	0	0	
11	0	0	0	0	537	1	0	0	0	0	
12	0	0	0	0	537	1	0	0	0	0	
13	0	0	0	0	537	1	0	0	0	0	
14	0	0	0	0	537	1	0	0	0	0	
15	0	0	0	0	537	2	0	0	0	0	
0	0	0	0	0	536	1	0	0	0	0	
1	0	0	0	0	536	1	0	0	0	0	
2	0	0	0	0	536	1	0	0	0	0	
3	0	0	0	0	536	1	0	0	0	0	
4	0	0	0	0	536	1	0	0	0	0	
5	0	0	0	0	536	1	0	0	0	0	
6	0	0	0	0	536	1	0	0	0	0	
7	0	0	0	0	536	2	0	0	0	0	
8	0	0	0	0	536	1	0	0	0	0	
9	0	0	0	0	536	1	0	0	0	0	
10	0	0	0	0	536	1	0	0	0	0	
11	0	0	0	0	537	1	0	0	0	0	
12	0	0	0	0	537	1	0	0	0	0	
13	0	0	0	0	536	1	0	0	0	0	
14	0	0	0	0	536	1	0	0	0	0	
15	0	0	0	0	538	2	0	0	0	0	
0	0	0	0	0	538	1	0	0	0	0	
1	0	0	0	0	537	1	0	0	0	0	
2	0	0	0	0	537	1	0	0	0	0	
3	0	0	0	0	538	1	0	0	0	0	
4	0	0	0	0	539	1	0	0	0	0	
5	0	0	0	0	539	1	0	0	0	0	
6	0	0	0	0	539	1	0	0	0	0	
7	0	0	0	0	540	1	0	0	0	0	
8	0	0	0	0	540	1	0	0	0	0	
9	0	0	0	0	540	1	0	0	0	0	
10	0	0	0	0	540	1	0	0	0	0	
11	0	0	0	0	540	1	0	0	0	0	
12	0	0	0	0	540	1	0	0	0	0	
13	0	0	0	0	540	1	0	0	0	0	
14	0	0	0	0	540	1	0	0	0	0	
15	0	0	0	0	540	1	0	0	0	0	
0	0	0	0	0	540	1	0	0	0	0	
1	0	0	0	0	538	1	0	0	0	0	
2	0	0	0	0	537	1	0	0	0	0	
3	0	0	0	0	536	1	0	0	0	0	
4	0	0	0	0	536	1	0	0	0	0	
5	0	0	0	0	535	1	0	0	0	0	
6	0	0	0	0	534	1	0	0	0	0	
7	0	0	0	0	533	2	0	0	0	0	
8	0	0	0	0	531	1	0	0	0	0	
9	0	0	0	0	531	1	0	0	0	0	
10	0	0	0	0	532	1	0	0	0	0	
11	0	0	0	0	533	1	0	0	0	0	
12	0	0	0	0	533	1	0	0	0	0	
13	0	0	0	0	532	1	0	0	0	0	
14	0	0	0	0	532	1	0	0	0	0	
15	0	0	0	0	532	2	0	0	0	0	
0	0	0	0	0	532	1	0	0	0	0	
1	0	0	0	0	533	1	0	0	0	0	
2	0	0	0	0	533	1	0	0	0	0	
3	0	0	0	0	532	1	0	0	0	0	
4	0	0	0	0	530	1	0	0	0	0	
5	0	0	0	0	529	1	0	0	0	0	
6	0	0	0	0	529	1	0	0	0	0	
7	0	0	0	0	529	2	0	0	0	0	
8	0	0	0	0	528	1	0	0	0	0	
9	0	0	0	0	528	1	0	0	0	0	
10	0	0	0	0	528	1	0	0	0	0	
11	0	0	0	0	529	1	0	0	0	0	
12	0	0	0	0	528	1	0	0	0	0	
13	0	0	0	0	528	1	0	0	0	0	
14	0	0	0	0	528	1	0	0	0	0	
15	0	0	0	0	528	2	0	0	0	0	
0	0	0	0	0	528	1	0	0	0	0	
1	0	0	0	0	528	1	0	0	0	0	
2	0	0	0	0	528	1	0	0	0	0	
3	0	0	0	0	527	1	0	0	0	0	
4	0	0	0	0	526	0	0	0	0	0	
5	0	0	0	0	526	1	0	0	0	0	
6	0	0	0	0	526	1	0	0	0	0	
7	0	0	0	0	525	2	0	0	0	0	
8	0	0	0	0	525	1	0	0	0	0	
9	0	0	0	0	525	1	0	0	0	0	
10	0	0	0	0	525	1	0	0	0	0	
11	0	0	0	0	526	1	0	0	0	0	
12	0	0	0	0	526	0	0	0	0	0	
13	0	0	0	0	525	1	0	0	0	0	
14	0	0	0	0	526	1	0	0	0	0	
15	0	0	0	0	525	2	0	0	0	0	
0	0	0	0	0	526	1	0	0	0	0	
1	0	0	0	0	526	1	0	0	0	0	
2	0	0	0	0	526	1	0	0	0	0	
3	0	0	0	0	525	1	0	0	0	0	
4	0	0	0	0	524	1	0	0	0	0	
5	0	0	0	0	523	1	0	0	0	0	
6	0	0	0	0	522	1	0	0	0	0	
7	0	0	0	0	522	2	0	0	0	0	
8	0	0	0	0	520	1	0	0	0	0	
9	0	0	0	0	520	1	0	0	0	0	
10	0	0	0	0	521	0	0	0	0	0	
11	0	0	0	0	523	1	0	0	0	0	
12	0	0	0	0	523	1	0	0	0	0	
13	0	0	0	0	522	1	0	0	0	0	
14	0	0	0	0	522	1	0	0	0	0	
15	0	0	0	0	523	2	0	0	0	0	
0	0	0	0	0	524	1	0	0	0	0	
1	0	0	0	0	525	1	0	0	0	0	
2	0	0	0	0	525	0	0	0	0	0	
3	0	0	0	0	524	1	0	0	0	0	
4	0	0	0	0	522	1	0	0	0	0	
5	0	0	0	0	521	1	0	0	0	0	
6	0	0	0	0	521	1	0	0	0	0	
7	0	0	0	0	521	2	0	0	0	0	
8	0	0	0	0	521	1	0	0	0	0	
9	0	0	0	0	521	0	0	0	0	0	
10	0	0	0	0	521	1	0	0	0	0	
11	0	0	0	0	521	1	0	0	0	0	
12	0	0	0	0	521	1	0	0	0	0	
13	0	0	0	0	520	1	0	0	0	0	
14	0	0	0	0	521	1	0	0	0	0	
15	0	0	0	0	521	2	0	0	0	0	
0	0	0	0	0	521	1	0	0	0	0	
1	0	0	0	0	522	0	0	0	0	0	
2	0	0	0	0	523	1	0	0	0	0	
3	0	0	0	0	523	1	0	0	0	0	
4	0	0	0	0	523	1	0	0	0	0	
5	0	0	0	0	524	1	0	0	0	0	
6	0	0	0	0	524	1	0	0	0	0	
7	0	0	0	0	524	2	0	0	0	0	
8	0	0	0	0	523	1	0	0	0	0	
9	0	0	0	0	523	0	0	0	0	0	
10	0	0	0	0	522	1	0	0	0	0	
11	0	0	0	0	522	1	0	0	0	0	
12	0	0	0	0	523	1	0	0	0	0	
13	0	0	0	0	522	1	0	0	0	0	
14	0	0	0	0	522	1	0	0	0	0	
15	0	0	0	0	522	1	0	0	0	0	
0	0	0	0	0	523	1	0	0	0	0	
1	0	0	0	0	522	1	0	0	0	0	
2	0	0	0	0	522	1	0	0	0	0	
3	0	0	0	0	524	1	0	0	0	0	
4	0	0	0	0	524	1	0	0	0	0	
5	0	0	0	0	524	1	0	0	0	0	
6	0	0	0	0	524	1	0	0	0	0	
7	0	0	0	0	524	1	0	0	0	0	
8	0	0	0	0	523	1	0	0	0	0	
9	0	0	0	0	523	1	0	0	0	0	
10	0	0	0	0	521	1	0	0	0	0	
11	0	0	0	0	519	1	0	0	0	0	
12	0	0	0	0	519	1	0	0	0	0	
13	0	0	0	0	519	1	0	0	0	0	
14	0	0	0	0	519	1	0	0	0	0	
15	0	0	0	0	519	1	0	0	0	0	
0	0	0	0	0	518	1	0	0	0	0	
1	0	0	0	0	519	1	0	0	0	0	
2	0	0	0	0	519	1	0	0	0	0	
3	0	0	0	0	519	1	0	0	0	0	
4	0	0	0	0	520	1	0	0	0	0	
5	0	0	0	0	520	1	0	0	0	0	
6	0	0	0	0	519	1	0	0	0	0	
7	0	0	0	0	520	2	0	0	0	0	
8	0	0	0	0	519	1	0	0	0	0	
9	0	0	0	0	519	0	0	0	0	0	
10	0	0	0	0	518	1	0	0	0	0	
11	0	0	0	0	519	1	0	0	0	0	
12	0	0	0	0	520	1	0	0	0	0	
13	0	0	0	0	519	1	0	0	0	0	
14	0	0	0	0	519	1	0	0	0	0	
15	0	0	0	0	519	2	0	0	0	0	
0	0	0	0	0	520	1	0	0	0	0	
1	0	0	0	0	520	0	0	0	0	0	
2	0	0	0	0	520	1	0	0	0	0	
3	0	0	0	0	521	1	0	0	0	0	
4	0	0	0	0	521	1	0	0	0	0	
5	0	0	0	0	521	1	0	0	0	0	
6	0	0	0	0	521	1	0	0	0	0	
7	0	0	0	0	520	2	0	0	0	0	
8	0	0	0	0	519	1	0	0	0	0	
9	0	0	0	0	520	0	0	0	0	0	
10	0	0	0	0	521	0	0	0	0	0	
11	0	0	0	0	522	1	0	0	0	0	
12	0	0	0	0	522	1	0	0	0	0	
13	0	0	0	0	520	1	0	0	0	0	
14	0	0	0	0	519	1	0	0	0	0	
15	0	0	0	0	517	2	0	0	0	0	
0	0	0	0	0	516	1	0	0	0	0	
1	0	0	0	0	516	1	0	0	0	0	
2	0	0	0	0	515	0	0	0	0	0	
3	0	0	0	0	516	1	0	0	0	0	
4	0	0	0	0	516	1	0	0	0	0	
5	0	0	0	0	516	1	0	0	0	0	
6	0	0	0	0	516	1	0	0	0	0	
7	0	0	0	0	516	2	0	0	0	0	
8	0	0	0	0	515	1	0	0	0	0	
9	0	0	0	0	515	1	0	0	0	0	
10	0	0	0	0	515	0	0	0	0	0	
11	0	0	0	0	515	1	0	0	0	0	
12	0	0	0	0	514	1	0	0	0	0	
13	0	0	0	0	513	1	0	0	0	0	
14	0	0	0	0	514	1	0	0	0	0	
15	0	0	0	0	515	2	0	0	0	0	
0	0	0	0	0	515	1	0	0	0	0	
1	0	0	0	0	514	1	0	0	0	0	
2	0	0	0	0	515	1	0	0	0	0	
3	0	0	0	0	515	1	0	0	0	0	
4	0	0	0	0	515	0	0	0	0	0	
5	0	0	0	0	515	1	0	0	0	0	
6	0	0	0	0	515	1	0	0	0	0	
7	0	0	0	0	515	2	0	0	0	0	
8	0	0	0	0	515	1	0	0	0	0	
9	0	0	0	0	515	1	0	0	0	0	
10	0	0	0	0	515	1	0	0	0	0	
11	0	0	0	0	513	1	0	0	0	0	
12	0	0	0	0	513	0	0	0	0	0	
13	0	0	0	0	513	1	0	0	0	0	
14	0	0	0	0	514	1	0	0	0	0	
15	0	0	0	0	515	2	0	0	0	0	
0	0	0	0	0	516	1	0	0	0	0	
1	0	0	0	0	518	1	0	0	0	0	
2	0	0	0	0	519	1	0	0	0	0	
3	0	0	0	0	519	1	0	0	0	0	
4	0	0	0	0	519	0	0	0	0	0	
5	0	0	0	0	519	1	0	0	0	0	
6	0	0	0	0	519	1	0	0	0	0	
7	0	0	0	0	518	2	0	0	0	0	
8	0	0	0	0	517	1	0	0	0	0	
9	0	0	0	0	516	1	0	0	0	0	
10	0	0	0	0	515	1	0	0	0	0	
11	0	0	0	0	515	1	0	0	0	0	
12	0	0	0	0	515	1	0	0	0	0	
13	0	0	0	0	514	0	0	0	0	0	
14	0	0	0	0	515	1	0	0	0	0	
15	0	0	0	0	515	2	0	0	0	0	
0	0	0	0	0	515	1	0	0	0	0	
1	0	0	0	0	513	1	0	0	0	0	
2	0	0	0	0	513	1	0	0	0	0	
3	0	0	0	0	513	1	0	0	0	0	
4	0	0	0	0	514	1	0	0	0	0	
5	0	0	0	0	513	0	0	0	0	0	
6	0	0	0	0	514	1	0	0	0	0	
7	0	0	0	0	515	2	0	0	0	0	
8	0	0	0	0	516	1	0	0	0	0	
9	0	0	0	0	517	1	0	0	0	0	
10	0	0	0	0	517	1	0	0	0	0	
11	0	0	0	0	516	1	0	0	0	0	
12	0	0	0	0	516	1	0	0	0	0	
13	0	0	0	0	517	1	0	0	0	0	
14	0	0	0	0	518	1	0	0	0	0	
15	0	0	0	0	517	1	0	0	0	0	
0	0	0	0	0	515	1	0	0	0	0	
1	0	0	0	0	515	1	0	0	0	0	
2	0	0	0	0	515	1	0	0	0	0	
3	0	0	0	0	515	1	0	0	0	0	
4	0	0	0	0	515	1	0	0	0	0	
5	0	0	0	0	515	1	0	0	0	0	
6	0	0	0	0	514	1	0	0	0	0	
7	0	0	0	0	513	1	0	0	0	0	
8	0	0	0	0	513	1	0	0	0	0	
9	0	0	0	0	514	1	0	0	0	0	
10	0	0	0	0	514	1	0	0	0	0	
11	0	0	0	0	515	1	0	0	0	0	
12	0	0	0	0	515	1	0	0	0	0	
13	0	0	0	0	514	1	0	0	0	0	
14	0	0	0	0	513	1	0	0	0	0	
15	0	0	0	0	513	1	0	0	0	0	
0	0	0	0	0	515	1	0	0	0	0	
1	0	0	0	0	515	1	0	0	0	0	
2	0	0	0	0	516	1	0	0	0	0	
3	0	0	0	0	516	1	0	0	0	0	
4	0	0	0	0	516	1	0	0	0	0	
5	0	0	0	0	516	1	0	0	0	0	
6	0	0	0	0	515	1	0	0	0	0	
7	0	0	0	0	515	2	0	0	0	0	
8	0	0	0	0	515	1	0	0	0	0	
9	0	0	0	0	514	1	0	0	0	0	
10	0	0	0	0	513	1	0	0	0	0	
11	0	0	0	0	513	1	0	0	0	0	
12	0	0	0	0	512	1	0	0	0	0	
13	0	0	0	0	513	1	0	0	0	0	
14	0	0	0	0	513	1	0	0	0	0	
15	0	0	0	0	513	2	0	0	0	0	
0	0	0	0	0	514	1	0	0	0	0	
1	0	0	0	0	514	1	0	0	0	0	
2	0	0	0	0	514	1	0	0	0	0	
3	0	0	0	0	514	1	0	0	0	0	
4	0	0	0	0	515	1	0	0	0	0	
5	0	0	0	0	515	1	0	0	0	0	
6	0	0	0	0	514	1	0	0	0	0	
7	0	0	0	0	514	2	0	0	0	0	
8	0	0	0	0	514	1	0	0	0	0	
9	0	0	0	0	514	1	0	0	0	0	
10	0	0	0	0	514	1	0	0	0	0	
11	0	0	0	0	515	1	0	0	0	0	
12	0	0	0	0	515	0	0	0	0	0	
13	0	0	0	0	516	1	0	0	0	0	
14	0	0	0	0	516	1	0	0	0	0	
15	0	0	0	0	515	2	0	0	0	0	
0	0	0	0	0	515	1	0	0	0	0	
1	0	0	0	0	516	1	0	0	0	0	
2	0	0	0	0	516	1	0	0	0	0	
3	0	0	0	0	515	1	0	0	0	0	
4	0	0	0	0	514	0	0	0	0	0	
5	0	0	0	0	514	1	0	0	0	0	
6	0	0	0	0	513	1	0	0	0	0	
7	0	0	0	0	513	2	0	0	0	0	
8	0	0	0	0	514	1	0	0	0	0	
9	0	0	0	0	515	1	0	0	0	0	
10	0	0	0	0	515	1	0	0	0	0	
11	0	0	0	0	515	1	0	0	0	0	
12	0	0	0	0	515	0	0	0	0	0	
13	0	0	0	0	515	1	0	0	0	0	
14	0	0	0	0	513	1	0	0	0	0	
15	0	0	0	0	513	2	0	0	0	0	
0	0	0	0	0	512	1	0	0	0	0	
1	0	0	0	0	512	1	0	0	0	0	
2	0	0	0	0	511	0	0	0	0	0	
3	0	0	0	0	512	1	0	0	0	0	
4	0	0	0	0	512	1	0	0	0	0	
5	0	0	0	0	512	1	0	0	0	0	
6	0	0	0	0	512	1	0	0	0	0	
7	0	0	0	0	512	2	0	0	0	0	
8	0	0	0	0	511	1	0	0	0	0	
9	0	0	0	0	510	1	0	0	0	0	
10	0	0	0	0	509	0	0	0	0	0	
11	0	0	0	0	508	1	0	0	0	0	
12	0	0	0	0	508	1	0	0	0	0	
13	0	0	0	0	508	1	0	0	0	0	
14	0	0	0	0	507	1	0	0	0	0	
15	0	0	0	0	507	2	0	0	0	0	
0	0	0	0	0	506	1	0	0	0	0	
1	0	0	0	0	505	1	0	0	0	0	
2	0	0	0	0	505	0	0	0	0	0	
3	0	0	0	0	504	1	0	0	0	0	
4	0	0	0	0	503	1	0	0	0	0	
5	0	0	0	0	502	1	0	0	0	0	
6	0	0	0	0	500	1	0	0	0	0	
7	0	0	0	0	499	2	0	0	0	0	
8	0	0	0	0	498	1	0	0	0	0	
9	0	0	0	0	496	0	0	0	0	0	
10	0	0	0	0	496	1	0	0	0	0	
11	0	0	0	0	496	1	0	0	0	0	
12	0	0	0	0	496	1	0	0	0	0	
13	0	0	0	0	495	1	0	0	0	0	
14	0	0	0	0	495	1	0	0	0	0	
15	0	0	0	0	496	2	0	0	0	0	
0	0	0	0	0	496	1	0	0	0	0	
1	0	0	0	0	495	0	0	0	0	0	
2	0	0	0	0	495	1	0	0	0	0	
3	0	0	0	0	496	1	0	0	0	0	
4	0	0	0	0	497	1	0	0	0	0	
5	0	0	0	0	499	1	0	0	0	0	
6	0	0	0	0	498	1	0	0	0	0	
7	0	0	0	0	498	2	0	0	0	0	
8	0	0	0	0	499	1	0	0	0	0	
9	0	0	0	0	499	1	0	0	0	0	
10	0	0	0	0	500	1	0	0	0	0	
11	0	0	0	0	500	1	0	0	0	0	
12	0	0	0	0	500	1	0	0	0	0	
13	0	0	0	0	500	1	0	0	0	0	
14	0	0	0	0	501	1	0	0	0	0	
15	0	0	0	0	502	1	0	0	0	0	
0	0	0	0	0	503	1	0	0	0	0	
1	0	0	0	0	504	1	0	0	0	0	
2	0	0	0	0	504	1	0	0	0	0	
3	0	0	0	0	505	1	0	0	0	0	
4	0	0	0	0	505	1	0	0	0	0	
5	0	0	0	0	504	1	0	0	0	0	
6	0	0	0	0	503	1	0	0	0	0	
7	0	0	0	0	503	1	0	0	0	0	
8	0	0	0	0	504	1	0	0	0	0	
9	0	0	0	0	505	1	0	0	0	0	
10	0	0	0	0	507	1	0	0	0	0	
11	0	0	0	0	510	1	0	0	0	0	
12	0	0	0	0	511	1	0	0	0	0	
13	0	0	0	0	512	1	0	0	0	0	
14	0	0	0	0	513	1	0	0	0	0	
15	0	0	0	0	513	2	0	0	0	0	
0	0	0	0	0	514	1	0	0	0	0	
1	0	0	0	0	516	0	0	0	0	0	
2	0	0	0	0	518	1	0	0	0	0	
3	0	0	0	0	520	1	0	0	0	0	
4	0	0	0	0	524	1	0	0	0	0	
5	0	0	0	0	527	1	0	0	0	0	
6	0	0	0	0	528	1	0	0	0	0	
7	0	0	0	0	531	2	0	0	0	0	
8	0	0	0	0	531	1	0	0	0	0	
9	0	0	0	0	531	0	0	0	0	0	
10	0	0	0	0	531	1	0	0	0	0	
11	0	0	0	0	532	1	0	0	0	0	
12	0	0	0	0	532	1	0	0	0	0	
13	0	0	0	0	532	1	0	0	0	0	
14	0	0	0	0	532	1	0	0	0	0	
15	0	0	0	0	532	2	0	0	0	0	
0	0	0	0	0	531	1	0	0	0	0	
1	0	0	0	0	531	0	0	0	0	0	
2	0	0	0	0	530	1	0	0	0	0	
3	0	0	0	0	529	1	0	0	0	0	
4	0	0	0	0	529	1	0	0	0	0	
5	0	0	0	0	529	1	0	0	0	0	
6	0	0	0	0	529	1	0	0	0	0	
7	0	0	0	0	528	2	0	0	0	0	
8	0	0	0	0	528	1	0	0	0	0	
9	0	0	0	0	529	1	0	0	0	0	
10	0	0	0	0	529	0	0	0	0	0	
11	0	0	0	0	529	1	0	0	0	0	
12	0	0	0	0	529	1	0	0	0	0	
13	0	0	0	0	529	1	0	0	0	0	
14	0	0	0	0	530	1	0	0	0	0	
15	0	0	0	0	529	2	0	0	0	0	
0	0	0	0	0	529	1	0	0	0	0	
1	0	0	0	0	528	1	0	0	0	0	
2	0	0	0	0	527	1	0	0	0	0	
3	0	0	0	0	527	1	0	0	0	0	
4	0	0	0	0	527	1	0	0	0	0	
5	0	0	0	0	527	1	0	0	0	0	
6	0	0	0	0	526	1	0	0	0	0	
7	0	0	0	0	526	2	0	0	0	0	
8	0	0	0	0	526	1	0	0	0	0	
9	0	0	0	0	527	1	0	0	0	0	
10	0	0	0	0	527	1	0	0	0	0	
11	0	0	0	0	528	1	0	0	0	0	
12	0	0	0	0	529	0	0	0	0	0	
13	0	0	0	0	528	1	0	0	0	0	
14	0	0	0	0	528	1	0	0	0	0	
15	0	0	0	0	528	2	0	0	0	0	
0	0	0	0	0	527	1	0	0	0	0	
1	0	0	0	0	527	1	0	0	0	0	
2	0	0	0	0	526	1	0	0	0	0	
3	0	0	0	0	526	1	0	0	0	0	
4	0	0	0	0	526	0	0	0	0	0	
5	0	0	0	0	527	1	0	0	0	0	
6	0	0	0	0	526	1	0	0	0	0	
7	0	0	0	0	526	2	0	0	0	0	
8	0	0	0	0	526	1	0	0	0	0	
9	0	0	0	0	525	1	0	0	0	0	
10	0	0	0	0	525	1	0	0	0	0	
11	0	0	0	0	526	1	0	0	0	0	
12	0	0	0	0	526	0	0	0	0	0	
13	0	0	0	0	527	1	0	0	0	0	
14	0	0	0	0	528	1	0	0	0	0	
15	0	0	0	0	530	2	0	0	0	0	
0	0	0	0	0	530	1	0	0	0	0	
1	0	0	0	0	531	1	0	0	0	0	
2	0	0	0	0	532	1	0	0	0	0	
3	0	0	0	0	534	1	0	0	0	0	
4	0	0	0	0	535	1	0	0	0	0	
5	0	0	0	0	536	1	0	0	0	0	
6	0	0	0	0	537	1	0	0	0	0	
7	0	0	0	0	536	2	0	0	0	0	
8	0	0	0	0	536	1	0	0	0	0	
9	0	0	0	0	534	1	0	0	0	0	
10	0	0	0	0	531	1	0	0	0	0	
11	0	0	0	0	527	1	0	0	0	0	
12	0	0	0	0	524	1	0	0	0	0	
13	0	0	0	0	520	1	0	0	0	0	
14	0	0	0	0	516	1	0	0	0	0	
15	0	0	0	0	513	2	0	0	0	0	
0	0	0	0	0	509	1	0	0	0	0	
1	0	0	0	0	505	1	0	0	0	0	
2	0	0	0	0	499	1	0	0	0	0	
3	0	0	0	0	493	1	0	0	0	0	
4	0	0	0	0	487	1	0	0	0	0	
5	0	0	0	0	479	0	0	0	0	0	
6	0	0	0	0	468	0	0	0	0	0	
7	0	0	0	0	460	0	0	0	0	0	
8	0	0	0	0	451	0	0	0	0	0	
9	0	0	0	0	441	0	0	0	0	0	
10	0	0	0	0	433	0	0	0	0	0	
11	0	0	0	0	426	0	0	0	0	0	
12	0	0	0	0	419	0	0	0	0	0	
13	0	0	0	0	412	0	0	0	0	0	
14	0	0	0	0	407	0	0	0	0	0	
15	0	0	0	0	404	0	0	0	0	0	
0	0	0	0	0	402	0	0	0	0	0	
1	0	0	0	0	400	0	0	0	0	0	
2	0	0	0	0	395	0	0	0	0	0	
3	0	0	0	0	388	0	0	0	0	0	
4	0	0	0	0	383	0	0	0	0	0	
5	0	0	0	0	377	0	0	0	0	0	
6	0	0	0	0	376	0	0	0	0	0	
7	0	0	0	0	380	0	0	0	0	0	
8	0	0	0	0	391	0	0	0	0	0	
9	0	0	0	0	408	0	0	0	0	0	
10	0	0	0	0	430	0	0	0	0	0	
11	0	0	0	0	454	0	0	0	0	0	
12	0	0	0	0	479	1	0	0	0	0	
13	0	0	0	0	502	0	0	0	0	0	
14	0	0	0	0	523	1	0	0	0	0	
15	0	0	0	0	541	2	0	0	0	0	
0	0	0	0	0	559	1	0	0	0	0	
1	0	0	0	0	574	1	0	0	0	0	
2	0	0	0	0	587	1	0	0	0	0	
3	0	0	0	0	597	1	0	0	0	0	
4	0	0	0	0	607	1	0	0	0	0	
5	0	0	0	0	615	1	0	0	0	0	
6	0	0	0	0	622	2	0	0	0	0	
7	0	0	0	0	627	3	0	0	0	0	
8	0	0	0	0	631	2	0	0	0	0	
9	0	0	0	0	635	2	0	0	0	0	
10	0	0	0	0	637	2	0	0	0	0	
11	0	0	0	0	638	2	0	0	0	0	
12	0	0	0	0	638	2	0	0	0	0	
13	0	0	0	0	639	1	0	0	0	0	
14	0	0	0	0	637	2	0	0	0	0	
15	0	0	0	0	636	3	0	0	0	0	
0	0	0	0	0	634	2	0	0	0	0	
1	0	0	0	0	633	2	0	0	0	0	
2	0	0	0	0	632	2	0	0	0	0	
3	0	0	0	0	628	1	0	0	0	0	
4	0	0	0	0	624	0	0	0	0	0	
5	0	0	0	0	618	1	0	0	0	0	
6	0	0	0	0	612	1	0	0	0	0	
7	0	0	0	0	606	2	0	0	0	0	
8	0	0	0	0	600	1	0	0	0	0	
9	0	0	0	0	592	1	0	0	0	0	
10	0	0	0	0	585	1	0	0	0	0	
11	0	0	0	0	578	1	0	0	0	0	
12	0	0	0	0	571	0	0	0	0	0	
13	0	0	0	0	563	1	0	0	0	0	
14	0	0	0	0	556	1	0	0	0	0	
15	0	0	0	0	549	2	0	0	0	0	
0	0	0	0	0	543	1	0	0	0	0	
1	0	0	0	0	538	1	0	0	0	0	
2	0	0	0	0	534	1	0	0	0	0	
3	0	0	0	0	531	1	0	0	0	0	
4	0	0	0	0	528	0	0	0	0	0	
5	0	0	0	0	526	1	0	0	0	0	
6	0	0	0	0	524	1	0	0	0	0	
7	0	0	0	0	523	2	0	0	0	0	
8	0	0	0	0	522	1	0	0	0	0	
9	0	0	0	0	520	1	0	0	0	0	
10	0	0	0	0	518	0	0	0	0	0	
11	0	0	0	0	516	1	0	0	0	0	
12	0	0	0	0	516	1	0	0	0	0	
13	0	0	0	0	515	1	0	0	0	0	
14	0	0	0	0	515	1	0	0	0	0	
15	0	0	0	0	513	2	0	0	0	0	
0	0	0	0	0	512	1	0	0	0	0	
1	0	0	0	0	512	1	0	0	0	0	
2	0	0	0	0	512	0	0	0	0	0	
3	0	0	0	0	512	1	0	0	0	0	
4	0	0	0	0	511	1	0	0	0	0	
5	0	0	0	0	511	1	0	0	0	0	
6	0	0	0	0	511	1	0	0	0	0	
7	0	0	0	0	511	2	0	0	0	0	
8	0	0	0	0	511	1	0	0	0	0	
9	0	0	0	0	510	1	0	0	0	0	
10	0	0	0	0	510	0	0	0	0	0	
11	0	0	0	0	509	1	0	0	0	0	
12	0	0	0	0	508	1	0	0	0	0	
13	0	0	0	0	508	1	0	0	0	0	
14	0	0	0	0	507	1	0	0	0	0	
15	0	0	0	0	507	2	0	0	0	0	
0	0	0	0	0	506	1	0	0	0	0	
1	0	0	0	0	507	0	0	0	0	0	
2	0	0	0	0	506	1	0	0	0	0	
3	0	0	0	0	507	1	0	0	0	0	
4	0	0	0	0	506	1	0	0	0	0	
5	0	0	0	0	507	1	0	0	0	0	
6	0	0	0	0	507	1	0	0	0	0	
7	0	0	0	0	507	2	0	0	0	0	
8	0	0	0	0	506	1	0	0	0	0	
9	0	0	0	0	506	0	0	0	0	0	
10	0	0	0	0	504	1	0	0	0	0	
11	0	0	0	0	504	1	0	0	0	0	
12	0	0	0	0	505	1	0	0	0	0	
13	0	0	0	0	505	1	0	0	0	0	
14	0	0	0	0	505	1	0	0	0	0	
15	0	0	0	0	505	2	0	0	0	0	
0	0	0	0	0	504	1	0	0	0	0	
1	0	0	0	0	504	0	0	0	0	0	
2	0	0	0	0	504	1	0	0	0	0	
3	0	0	0	0	503	1	0	0	0	0	
4	0	0	0	0	502	1	0	0	0	0	
5	0	0	0	0	503	1	0	0	0	0	
6	0	0	0	0	503	1	0	0	0	0	
7	0	0	0	0	502	1	0	0	0	0	
8	0	0	0	0	503	1	0	0	0	0	
9	0	0	0	0	503	1	0	0	0	0	
10	0	0	0	0	503	1	0	0	0	0	
11	0	0	0	0	504	1	0	0	0	0	
12	0	0	0	0	504	1	0	0	0	0	
13	0	0	0	0	503	1	0	0	0	0	
14	0	0	0	0	503	1	0	0	0	0	
15	0	0	0	0	502	1	0	0	0	0	
0	0	0	0	0	500	1	0	0	0	0	
1	0	0	0	0	499	1	0	0	0	0	
2	0	0	0	0	498	1	0	0	0	0	
3	0	0	0	0	498	1	0	0	0	0	
4	0	0	0	0	499	1	0	0	0	0	
5	0	0	0	0	500	1	0	0	0	0	
6	0	0	0	0	501	1	0	0	0	0	
7	0	0	0	0	501	1	0	0	0	0	
8	0	0	0	0	501	1	0	0	0	0	
9	0	0	0	0	502	0	0	0	0	0	
10	0	0	0	0	502	1	0	0	0	0	
11	0	0	0	0	504	1	0	0	0	0	
12	0	0	0	0	504	1	0	0	0	0	
13	0	0	0	0	504	1	0	0	0	0	
14	0	0	0	0	504	1	0	0	0	0	
15	0	0	0	0	504	2	0	0	0	0	
0	0	0	0	0	505	1	0	0	0	0	
1	0	0	0	0	505	0	0	0	0	0	
2	0	0	0	0	504	1	0	0	0	0	
3	0	0	0	0	504	1	0	0	0	0	
4	0	0	0	0	504	1	0	0	0	0	
5	0	0	0	0	504	1	0	0	0	0	
6	0	0	0	0	504	1	0	0	0	0	
7	0	0	0	0	504	2	0	0	0	0	
8	0	0	0	0	504	1	0	0	0	0	
9	0	0	0	0	503	0	0	0	0	0	
10	0	0	0	0	502	1	0	0	0	0	
11	0	0	0	0	503	1	0	0	0	0	
12	0	0	0	0	503	1	0	0	0	0	
13	0	0	0	0	503	1	0	0	0	0	
14	0	0	0	0	504	1	0	0	0	0	
15	0	0	0	0	503	2	0	0	0	0	
0	0	0	0	0	503	1	0	0	0	0	
1	0	0	0	0	502	1	0	0	0	0	
2	0	0	0	0	502	0	0	0	0	0	
3	0	0	0	0	503	1	0	0	0	0	
4	0	0	0	0	503	1	0	0	0	0	
5	0	0	0	0	503	1	0	0	0	0	
6	0	0	0	0	502	1	0	0	0	0	
7	0	0	0	0	501	2	0	0	0	0	
8	0	0	0	0	501	1	0	0	0	0	
9	0	0	0	0	501	1	0	0	0	0	
10	0	0	0	0	501	0	0	0	0	0	
11	0	0	0	0	501	1	0	0	0	0	
12	0	0	0	0	500	1	0	0	0	0	
13	0	0	0	0	500	1	0	0	0	0	
14	0	0	0	0	500	1	0	0	0	0	
15	0	0	0	0	501	2	0	0	0	0	
0	0	0	0	0	500	1	0	0	0	0	
1	0	0	0	0	501	1	0	0	0	0	
2	0	0	0	0	501	0	0	0	0	0	
3	0	0	0	0	500	1	0	0	0	0	
4	0	0	0	0	499	1	0	0	0	0	
5	0	0	0	0	499	1	0	0	0	0	
6	0	0	0	0	501	1	0	0	0	0	
7	0	0	0	0	502	2	0	0	0	0	
8	0	0	0	0	503	1	0	0	0	0	
9	0	0	0	0	503	1	0	0	0	0	
10	0	0	0	0	503	1	0	0	0	0	
11	0	0	0	0	504	1	0	0	0	0	
12	0	0	0	0	504	0	0	0	0	0	
13	0	0	0	0	504	1	0	0	0	0	
14	0	0	0	0	503	1	0	0	0	0	
15	0	0	0	0	502	2	0	0	0	0	
0	0	0	0	0	501	1	0	0	0	0	
1	0	0	0	0	501	1	0	0	0	0	
2	0	0	0	0	500	1	0	0	0	0	
3	0	0	0	0	500	1	0	0	0	0	
4	0	0	0	0	499	0	0	0	0	0	
5	0	0	0	0	499	1	0	0	0	0	
6	0	0	0	0	499	1	0	0	0	0	
7	0	0	0	0	499	2	0	0	0	0	
8	0	0	0	0	499	1	0	0	0	0	
9	0	0	0	0	499	1	0	0	0	0	
10	0	0	0	0	500	1	0	0	0	0	
11	0	0	0	0	501	1	0	0	0	0	
12	0	0	0	0	502	1	0	0	0	0	
13	0	0	0	0	503	0	0	0	0	0	
14	0	0	0	0	503	1	0	0	0	0	
15	0	0	0	0	504	2	0	0	0	0	
0	0	0	0	0	503	1	0	0	0	0	
1	0	0	0	0	502	1	0	0	0	0	
2	0	0	0	0	502	1	0	0	0	0	
3	0	0	0	0	502	1	0	0	0	0	
4	0	0	0	0	501	1	0	0	0	0	
5	0	0	0	0	502	0	0	0	0	0	
6	0	0	0	0	502	1	0	0	0	0	
7	0	0	0	0	501	2	0	0	0	0	
8	0	0	0	0	500	1	0	0	0	0	
9	0	0	0	0	499	1	0	0	0	0	
10	0	0	0	0	499	1	0	0	0	0	
11	0	0	0	0	498	1	0	0	0	0	
12	0	0	0	0	498	1	0	0	0	0	
13	0	0	0	0	497	0	0	0	0	0	
14	0	0	0	0	498	1	0	0	0	0	
15	0	0	0	0	498	2	0	0	0	0	
0	0	0	0	0	499	1	0	0	0	0	
1	0	0	0	0	499	1	0	0	0	0	
2	0	0	0	0	500	1	0	0	0	0	
3	0	0	0	0	502	1	0	0	0	0	
4	0	0	0	0	502	1	0	0	0	0	
5	0	0	0	0	502	1	0	0	0	0	
6	0	0	0	0	502	1	0	0	0	0	
7	0	0	0	0	502	1	0	0	0	0	
8	0	0	0	0	501	1	0	0	0	0	
9	0	0	0	0	500	1	0	0	0	0	
10	0	0	0	0	499	1	0	0	0	0	
11	0	0	0	0	499	1	0	0	0	0	
12	0	0	0	0	500	1	0	0	0	0	
13	0	0	0	0	500	1	0	0	0	0	
14	0	0	0	0	501	1	0	0	0	0	
15	0	0	0	0	501	1	0	0	0	0	
0	0	0	0	0	502	1	0	0	0	0	
1	0	0	0	0	502	1	0	0	0	0	
2	0	0	0	0	503	1	0	0	0	0	
3	0	0	0	0	503	1	0	0	0	0	
4	0	0	0	0	504	1	0	0	0	0	
5	0	0	0	0	503	1	0	0	0	0	
6	0	0	0	0	502	1	0	0	0	0	
7	0	0	0	0	501	2	0	0	0	0	
8	0	0	0	0	499	1	0	0	0	0	
9	0	0	0	0	499	1	0	0	0	0	
10	0	0	0	0	499	1	0	0	0	0	
11	0	0	0	0	499	1	0	0	0	0	
12	0	0	0	0	497	1	0	0	0	0	
13	0	0	0	0	497	0	0	0	0	0	
14	0	0	0	0	497	1	0	0	0	0	
15	0	0	0	0	497	2	0	0	0	0	
0	0	0	0	0	498	1	0	0	0	0	
1	0	0	0	0	498	1	0	0	0	0	
2	0	0	0	0	499	1	0	0	0	0	
3	0	0	0	0	500	1	0	0	0	0	
4	0	0	0	0	501	1	0	0	0	0	
5	0	0	0	0	502	0	0	0	0	0	
6	0	0	0	0	502	1	0	0	0	0	
7	0	0	0	0	502	2	0	0	0	0	
8	0	0	0	0	504	1	0	0	0	0	
9	0	0	0	0	504	1	0	0	0	0	
10	0	0	0	0	504	1	0	0	0	0	
11	0	0	0	0	505	1	0	0	0	0	
12	0	0	0	0	505	1	0	0	0	0	
13	0	0	0	0	505	1	0	0	0	0	
14	0	0	0	0	505	1	0	0	0	0	
15	0	0	0	0	506	2	0	0	0	0	
0	0	0	0	0	506	1	0	0	0	0	
1	0	0	0	0	507	1	0	0	0	0	
2	0	0	0	0	508	1	0	0	0	0	
3	0	0	0	0	509	1	0	0	0	0	
4	0	0	0	0	510	0	0	0	0	0	
5	0	0	0	0	511	1	0	0	0	0	
6	0	0	0	0	513	1	0	0	0	0	
7	0	0	0	0	514	2	0	0	0	0	
8	0	0	0	0	515	1	0	0	0	0	
9	0	0	0	0	516	1	0	0	0	0	
10	0	0	0	0	519	1	0	0	0	0	
11	0	0	0	0	520	1	0	0	0	0	
12	0	0	0	0	521	0	0	0	0	0	
13	0	0	0	0	522	1	0	0	0	0	
14	0	0	0	0	523	1	0	0	0	0	
15	0	0	0	0	525	2	0	0	0	0	
0	0	0	0	0	525	1	0	0	0	0	
1	0	0	0	0	526	1	0	0	0	0	
2	0	0	0	0	527	1	0	0	0	0	
3	0	0	0	0	527	1	0	0	0	0	
4	0	0	0	0	527	1	0	0	0	0	
5	0	0	0	0	527	1	0	0	0	0	
6	0	0	0	0	527	1	0	0	0	0	
7	0	0	0	0	529	2	0	0	0	0	
8	0	0	0	0	529	1	0	0	0	0	
9	0	0	0	0	530	1	0	0	0	0	
10	0	0	0	0	530	1	0	0	0	0	
11	0	0	0	0	531	1	0	0	0	0	
12	0	0	0	0	531	1	0	0	0	0	
13	0	0	0	0	532	1	0	0	0	0	
14	0	0	0	0	532	1	0	0	0	0	
15	0	0	0	0	531	2	0	0	0	0	
0	0	0	0	0	531	1	0	0	0	0	
1	0	0	0	0	532	1	0	0	0	0	
2	0	0	0	0	534	1	0	0	0	0	
3	0	0	0	0	535	1	0	0	0	0	
4	0	0	0	0	536	1	0	0	0	0	
5	0	0	0	0	536	1	0	0	0	0	
6	0	0	0	0	537	1	0	0	0	0	
7	0	0	0	0	537	2	0	0	0	0	
8	0	0	0	0	537	1	0	0	0	0	
9	0	0	0	0	537	0	0	0	0	0	
10	0	0	0	0	536	1	0	0	0	0	
11	0	0	0	0	536	1	0	0	0	0	
12	0	0	0	0	536	1	0	0	0	0	
13	0	0	0	0	536	1	0	0	0	0	
14	0	0	0	0	535	1	0	0	0	0	
15	0	0	0	0	535	2	0	0	0	0	
0	0	0	0	0	536	1	0	0	0	0	
1	0	0	0	0	537	0	0	0	0	0	
2	0	0	0	0	539	1	0	0	0	0	
3	0	0	0	0	541	1	0	0	0	0	
4	0	0	0	0	542	1	0	0	0	0	
5	0	0	0	0	543	1	0	0	0	0	
6	0	0	0	0	542	1	0	0	0	0	
7	0	0	0	0	541	2	0	0	0	0	
8	0	0	0	0	540	1	0	0	0	0	
9	0	0	0	0	540	0	0	0	0	0	
10	0	0	0	0	539	1	0	0	0	0	
11	0	0	0	0	539	1	0	0	0	0	
12	0	0	0	0	538	1	0	0	0	0	
13	0	0	0	0	537	1	0	0	0	0	
14	0	0	0	0	536	1	0	0	0	0	
15	0	0	0	0	536	1	0	0	0	0	
0	0	0	0	0	536	1	0	0	0	0	
1	0	0	0	0	536	1	0	0	0	0	
2	0	0	0	0	536	1	0	0	0	0	
3	0	0	0	0	535	1	0	0	0	0	
4	0	0	0	0	534	1	0	0	0	0	
5	0	0	0	0	534	1	0	0	0	0	
6	0	0	0	0	535	1	0	0	0	0	
7	0	0	0	0	535	1	0	0	0	0	
8	0	0	0	0	534	1	0	0	0	0	
9	0	0	0	0	535	1	0	0	0	0	
10	0	0	0	0	535	1	0	0	0	0	
11	0	0	0	0	535	1	0	0	0	0	
12	0	0	0	0	535	1	0	0	0	0	
13	0	0	0	0	535	1	0	0	0	0	
14	0	0	0	0	535	1	0	0	0	0	
15	0	0	0	0	534	1	0	0	0	0	
0	0	0	0	0	534	1	0	0	0	0	
1	0	0	0	0	534	1	0	0	0	0	
2	0	0	0	0	534	1	0	0	0	0	
3	0	0	0	0	535	1	0	0	0	0	
4	0	0	0	0	535	1	0	0	0	0	
5	0	0	0	0	535	1	0	0	0	0	
6	0	0	0	0	534	1	0	0	0	0	
7	0	0	0	0	533	2	0	0	0	0	
8	0	0	0	0	532	1	0	0	0	0	
9	0	0	0	0	532	0	0	0	0	0	
10	0	0	0	0	531	1	0	0	0	0	
11	0	0	0	0	531	1	0	0	0	0	
12	0	0	0	0	530	1	0	0	0	0	
13	0	0	0	0	530	1	0	0	0	0	
14	0	0	0	0	530	1	0	0	0	0	
15	0	0	0	0	529	2	0	0	0	0	
0	0	0	0	0	529	1	0	0	0	0	
1	0	0	0	0	528	0	0	0	0	0	
2	0	0	0	0	528	1	0	0	0	0	
3	0	0	0	0	528	1	0	0	0	0	
4	0	0	0	0	527	1	0	0	0	0	
5	0	0	0	0	528	1	0	0	0	0	
6	0	0	0	0	528	1	0	0	0	0	
7	0	0	0	0	528	2	0	0	0	0	
8	0	0	0	0	527	1	0	0	0	0	
9	0	0	0	0	527	0	0	0	0	0	
10	0	0	0	0	528	1	0	0	0	0	
11	0	0	0	0	528	1	0	0	0	0	
12	0	0	0	0	528	1	0	0	0	0	
13	0	0	0	0	527	1	0	0	0	0	
14	0	0	0	0	529	1	0	0	0	0	
15	0	0	0	0	530	2	0	0	0	0	
0	0	0	0	0	530	1	0	0	0	0	
1	0	0	0	0	530	1	0	0	0	0	
2	0	0	0	0	530	1	0	0	0	0	
3	0	0	0	0	531	1	0	0	0	0	
4	0	0	0	0	529	1	0	0	0	0	
5	0	0	0	0	529	1	0	0	0	0	
6	0	0	0	0	529	1	0	0	0	0	
7	0	0	0	0	529	2	0	0	0	0	
8	0	0	0	0	528	1	0	0	0	0	
9	0	0	0	0	527	1	0	0	0	0	
10	0	0	0	0	527	1	0	0	0	0	
11	0	0	0	0	527	1	0	0	0	0	
12	0	0	0	0	526	1	0	0	0	0	
13	0	0	0	0	524	1	0	0	0	0	
14	0	0	0	0	524	1	0	0	0	0	
15	0	0	0	0	523	2	0	0	0	0	
0	0	0	0	0	522	1	0	0	0	0	
1	0	0	0	0	521	1	0	0	0	0	
2	0	0	0	0	521	1	0	0	0	0	
3	0	0	0	0	520	1	0	0	0	0	
4	0	0	0	0	520	0	0	0	0	0	
5	0	0	0	0	519	1	0	0	0	0	
6	0	0	0	0	519	1	0	0	0	0	
7	0	0	0	0	519	2	0	0	0	0	
8	0	0	0	0	519	1	0	0	0	0	
9	0	0	0	0	520	1	0	0	0	0	
10	0	0	0	0	519	1	0	0	0	0	
11	0	0	0	0	520	1	0	0	0	0	
12	0	0	0	0	521	0	0	0	0	0	
13	0	0	0	0	523	1	0	0	0	0	
14	0	0	0	0	523	1	0	0	0	0	
15	0	0	0	0	524	2	0	0	0	0	
0	0	0	0	0	524	1	0	0	0	0	
1	0	0	0	0	524	1	0	0	0	0	
2	0	0	0	0	525	1	0	0	0	0	
3	0	0	0	0	525	1	0	0	0	0	
4	0	0	0	0	523	0	0	0	0	0	
5	0	0	0	0	523	1	0	0	0	0	
6	0	0	0	0	523	1	0	0	0	0	
7	0	0	0	0	523	2	0	0	0	0	
8	0	0	0	0	522	1	0	0	0	0	
9	0	0	0	0	522	1	0	0	0	0	
10	0	0	0	0	522	1	0	0	0	0	
11	0	0	0	0	522	1	0	0	0	0	
12	0	0	0	0	522	1	0	0	0	0	
13	0	0	0	0	521	1	0	0	0	0	
14	0	0	0	0	521	1	0	0	0	0	
15	0	0	0	0	521	2	0	0	0	0	
0	0	0	0	0	520	1	0	0	0	0	
1	0	0	0	0	520	1	0	0	0	0	
2	0	0	0	0	520	1	0	0	0	0	
3	0	0	0	0	520	1	0	0	0	0	
4	0	0	0	0	520	1	0	0	0	0	
5	0	0	0	0	520	1	0	0	0	0	
6	0	0	0	0	520	1	0	0	0	0	
7	0	0	0	0	519	2	0	0	0	0	
8	0	0	0	0	519	1	0	0	0	0	
9	0	0	0	0	519	1	0	0	0	0	
10	0	0	0	0	520	1	0	0	0	0	
11	0	0	0	0	519	1	0	0	0	0	
12	0	0	0	0	519	1	0	0	0	0	
13	0	0	0	0	519	1	0	0	0	0	
14	0	0	0	0	519	1	0	0	0	0	
15	0	0	0	0	519	1	0	0	0	0	
0	0	0	0	0	520	1	0	0	0	0	
1	0	0	0	0	520	1	0	0	0	0	
2	0	0	0	0	520	1	0	0	0	0	
3	0	0	0	0	521	1	0	0	0	0	
4	0	0	0	0	521	1	0	0	0	0	
5	0	0	0	0	520	1	0	0	0	0	
6	0	0	0	0	520	1	0	0	0	0	
7	0	0	0	0	521	1	0	0	0	0	
8	0	0	0	0	522	1	0	0	0	0	
9	0	0	0	0	522	1	0	0	0	0	
10	0	0	0	0	521	1	0	0	0	0	
11	0	0	0	0	521	1	0	0	0	0	
12	0	0	0	0	521	1	0	0	0	0	
13	0	0	0	0	522	1	0	0	0	0	
14	0	0	0	0	521	1	0	0	0	0	
15	0	0	0	0	520	1	0	0	0	0	
0	0	0	0	0	519	1	0	0	0	0	
1	0	0	0	0	520	1	0	0	0	0	
2	0	0	0	0	521	1	0	0	0	0	
3	0	0	0	0	522	1	0	0	0	0	
4	0	0	0	0	523	1	0	0	0	0	
5	0	0	0	0	522	1	0	0	0	0	
6	0	0	0	0	522	1	0	0	0	0	
7	0	0	0	0	521	2	0	0	0	0	
8	0	0	0	0	522	1	0	0	0	0	
9	0	0	0	0	522	1	0	0	0	0	
10	0	0	0	0	523	1	0	0	0	0	
11	0	0	0	0	523	1	0	0	0	0	
12	0	0	0	0	523	1	0	0	0	0	
13	0	0	0	0	524	1	0	0	0	0	
14	0	0	0	0	522	1	0	0	0	0	
15	0	0	0	0	522	2	0	0	0	0	
0	0	0	0	0	522	1	0	0	0	0	
1	0	0	0	0	522	1	0	0	0	0	
2	0	0	0	0	521	1	0	0	0	0	
3	0	0	0	0	521	1	0	0	0	0	
4	0	0	0	0	521	1	0	0	0	0	
5	0	0	0	0	521	1	0	0	0	0	
6	0	0	0	0	521	1	0	0	0	0	
7	0	0	0	0	521	2	0	0	0	0	
8	0	0	0	0	521	1	0	0	0	0	
9	0	0	0	0	521	1	0	0	0	0	
10	0	0	0	0	521	1	0	0	0	0	
11	0	0	0	0	520	1	0	0	0	0	
12	0	0	0	0	520	0	0	0	0	0	
13	0	0	0	0	519	1	0	0	0	0	
14	0	0	0	0	518	1	0	0	0	0	
15	0	0	0	0	516	2	0	0	0	0	
0	0	0	0	0	516	1	0	0	0	0	
1	0	0	0	0	516	1	0	0	0	0	
2	0	0	0	0	516	1	0	0	0	0	
3	0	0	0	0	516	1	0	0	0	0	
4	0	0	0	0	518	0	0	0	0	0	
5	0	0	0	0	518	1	0	0	0	0	
6	0	0	0	0	518	1	0	0	0	0	
7	0	0	0	0	519	2	0	0	0	0	
8	0	0	0	0	519	1	0	0	0	0	
9	0	0	0	0	519	1	0	0	0	0	
10	0	0	0	0	519	1	0	0	0	0	
11	0	0	0	0	518	1	0	0	0	0	
12	0	0	0	0	518	0	0	0	0	0	
13	0	0	0	0	518	1	0	0	0	0	
14	0	0	0	0	518	1	0	0	0	0	
15	0	0	0	0	518	2	0	0	0	0	
0	0	0	0	0	518	1	0	0	0	0	
1	0	0	0	0	518	1	0	0	0	0	
2	0	0	0	0	518	0	0	0	0	0	
3	0	0	0	0	518	1	0	0	0	0	
4	0	0	0	0	518	1	0	0	0	0	
5	0	0	0	0	518	1	0	0	0	0	
6	0	0	0	0	516	1	0	0	0	0	
7	0	0	0	0	516	2	0	0	0	0	
8	0	0	0	0	516	1	0	0	0	0	
9	0	0	0	0	517	1	0	0	0	0	
10	0	0	0	0	517	0	0	0	0	0	
11	0	0	0	0	518	1	0	0	0	0	
12	0	0	0	0	519	1	0	0	0	0	
13	0	0	0	0	518	1	0	0	0	0	
14	0	0	0	0	518	1	0	0	0	0	
15	0	0	0	0	518	2	0	0	0	0	
0	0	0	0	0	518	1	0	0	0	0	
1	0	0	0	0	519	1	0	0	0	0	
2	0	0	0	0	519	0	0	0	0	0	
3	0	0	0	0	519	1	0	0	0	0	
4	0	0	0	0	518	1	0	0	0	0	
5	0	0	0	0	518	1	0	0	0	0	
6	0	0	0	0	518	1	0	0	0	0	
7	0	0	0	0	518	2	0	0	0	0	
8	0	0	0	0	518	1	0	0	0	0	
9	0	0	0	0	518	0	0	0	0	0	
10	0	0	0	0	517	1	0	0	0	0	
11	0	0	0	0	517	1	0	0	0	0	
12	0	0	0	0	517	1	0	0	0	0	
13	0	0	0	0	517	1	0	0	0	0	
14	0	0	0	0	518	1	0	0	0	0	
15	0	0	0	0	518	2	0	0	0	0	
0	0	0	0	0	518	1	0	0	0	0	
1	0	0	0	0	518	0	0	0	0	0	
2	0	0	0	0	518	1	0	0	0	0	
3	0	0	0	0	519	1	0	0	0	0	
4	0	0	0	0	519	1	0	0	0	0	
5	0	0	0	0	519	1	0	0	0	0	
6	0	0	0	0	518	1	0	0	0	0	
7	0	0	0	0	517	2	0	0	0	0	
8	0	0	0	0	516	1	0	0	0	0	
9	0	0	0	0	515	1	0	0	0	0	
10	0	0	0	0	516	1	0	0	0	0	
11	0	0	0	0	516	1	0	0	0	0	
12	0	0	0	0	517	1	0	0	0	0	
13	0	0	0	0	517	1	0	0	0	0	
14	0	0	0	0	517	1	0	0	0	0	
15	0	0	0	0	517	1	0	0	0	0	
0	0	0	0	0	516	1	0	0	0	0	
1	0	0	0	0	515	1	0	0	0	0	
2	0	0	0	0	515	1	0	0	0	0	
3	0	0	0	0	515	1	0	0	0	0	
4	0	0	0	0	515	1	0	0	0	0	
5	0	0	0	0	515	1	0	0	0	0	
6	0	0	0	0	515	1	0	0	0	0	
7	0	0	0	0	514	1	0	0	0	0	
8	0	0	0	0	514	1	0	0	0	0	
9	0	0	0	0	514	1	0	0	0	0	
10	0	0	0	0	515	1	0	0	0	0	
11	0	0	0	0	515	1	0	0	0	0	
12	0	0	0	0	515	1	0	0	0	0	
13	0	0	0	0	514	1	0	0	0	0	
14	0	0	0	0	514	1	0	0	0	0	
15	0	0	0	0	515	2	0	0	0	0	
0	0	0	0	0	515	1	0	0	0	0	
1	0	0	0	0	515	0	0	0	0	0	
2	0	0	0	0	514	1	0	0	0	0	
3	0	0	0	0	514	1	0	0	0	0	
4	0	0	0	0	514	1	0	0	0	0	
5	0	0	0	0	515	1	0	0	0	0	
6	0	0	0	0	515	1	0	0	0	0	
7	0	0	0	0	515	2	0	0	0	0	
8	0	0	0	0	515	1	0	0	0	0	
9	0	0	0	0	515	0	0	0	0	0	
10	0	0	0	0	515	1	0	0	0	0	
11	0	0	0	0	515	1	0	0	0	0	
12	0	0	0	0	515	1	0	0	0	0	
13	0	0	0	0	515	1	0	0	0	0	
14	0	0	0	0	515	1	0	0	0	0	
15	0	0	0	0	516	2	0	0	0	0	
0	0	0	0	0	516	1	0	0	0	0	
1	0	0	0	0	515	0	0	0	0	0	
2	0	0	0	0	515	1	0	0	0	0	
3	0	0	0	0	515	1	0	0	0	0	
4	0	0	0	0	516	1	0	0	0	0	
5	0	0	0	0	515	1	0	0	0	0	
6	0	0	0	0	515	1	0	0	0	0	
7	0	0	0	0	515	2	0	0	0	0	
8	0	0	0	0	514	1	0	0	0	0	
9	0	0	0	0	513	1	0	0	0	0	
10	0	0	0	0	513	0	0	0	0	0	
11	0	0	0	0	513	1	0	0	0	0	
12	0	0	0	0	514	1	0	0	0	0	
13	0	0	0	0	513	1	0	0	0	0	
14	0	0	0	0	513	1	0	0	0	0	
15	0	0	0	0	512	2	0	0	0	0	
0	0	0	0	0	512	1	0	0	0	0	
1	0	0	0	0	513	1	0	0	0	0	
2	0	0	0	0	514	0	0	0	0	0	
3	0	0	0	0	514	1	0	0	0	0	
4	0	0	0	0	514	1	0	0	0	0	
5	0	0	0	0	513	1	0	0	0	0	
6	0	0	0	0	512	1	0	0	0	0	
7	0	0	0	0	512	2	0	0	0	0	
8	0	0	0	0	511	1	0	0	0	0	
9	0	0	0	0	509	1	0	0	0	0	
10	0	0	0	0	507	1	0	0	0	0	
11	0	0	0	0	507	1	0	0	0	0	
12	0	0	0	0	506	0	0	0	0	0	
13	0	0	0	0	505	1	0	0	0	0	
14	0	0	0	0	506	1	0	0	0	0	
15	0	0	0	0	505	2	0	0	0	0	
0	0	0	0	0	504	1	0	0	0	0	
1	0	0	0	0	503	1	0	0	0	0	
2	0	0	0	0	501	1	0	0	0	0	
3	0	0	0	0	498	1	0	0	0	0	
4	0	0	0	0	496	0	0	0	0	0	
5	0	0	0	0	495	1	0	0	0	0	
6	0	0	0	0	495	1	0	0	0	0	
7	0	0	0	0	495	2	0	0	0	0	
8	0	0	0	0	494	1	0	0	0	0	
9	0	0	0	0	494	1	0	0	0	0	
10	0	0	0	0	494	1	0	0	0	0	
11	0	0	0	0	494	1	0	0	0	0	
12	0	0	0	0	495	0	0	0	0	0	
13	0	0	0	0	495	1	0	0	0	0	
14	0	0	0	0	496	1	0	0	0	0	
15	0	0	0	0	498	2	0	0	0	0	
0	0	0	0	0	499	1	0	0	0	0	
1	0	0	0	0	500	1	0	0	0	0	
2	0	0	0	0	500	1	0	0	0	0	
3	0	0	0	0	501	1	0	0	0	0	
4	0	0	0	0	503	1	0	0	0	0	
5	0	0	0	0	503	0	0	0	0	0	
6	0	0	0	0	503	1	0	0	0	0	
7	0	0	0	0	504	2	0	0	0	0	
8	0	0	0	0	504	1	0	0	0	0	
9	0	0	0	0	504	1	0	0	0	0	
10	0	0	0	0	504	1	0	0	0	0	
11	0	0	0	0	504	1	0	0	0	0	
12	0	0	0	0	504	1	0	0	0	0	
13	0	0	0	0	504	0	0	0	0	0	
14	0	0	0	0	504	1	0	0	0	0	
15	0	0	0	0	503	2	0	0	0	0	
0	0	0	0	0	503	1	0	0	0	0	
1	0	0	0	0	504	1	0	0	0	0	
2	0	0	0	0	505	1	0	0	0	0	
3	0	0	0	0	508	1	0	0	0	0	
4	0	0	0	0	509	1	0	0	0	0	
5	0	0	0	0	511	1	0	0	0	0	
6	0	0	0	0	512	1	0	0	0	0	
7	0	0	0	0	512	1	0	0	0	0	
8	0	0	0	0	513	1	0	0	0	0	
9	0	0	0	0	513	1	0	0	0	0	
10	0	0	0	0	515	1	0	0	0	0	
11	0	0	0	0	516	1	0	0	0	0	
12	0	0	0	0	518	1	0	0	0	0	
13	0	0	0	0	520	1	0	0	0	0	
14	0	0	0	0	522	1	0	0	0	0	
15	0	0	0	0	524	1	0	0	0	0	
0	0	0	0	0	525	1	0	0	0	0	
1	0	0	0	0	526	1	0	0	0	0	
2	0	0	0	0	526	1	0	0	0	0	
3	0	0	0	0	526	1	0	0	0	0	
4	0	0	0	0	525	1	0	0	0	0	
5	0	0	0	0	526	1	0	0	0	0	
6	0	0	0	0	527	1	0	0	0	0	
7	0	0	0	0	527	1	0	0	0	0	
8	0	0	0	0	528	1	0	0	0	0	
9	0	0	0	0	529	1	0	0	0	0	
10	0	0	0	0	529	1	0	0	0	0	
11	0	0	0	0	529	1	0	0	0	0	
12	0	0	0	0	529	1	0	0	0	0	
13	0	0	0	0	529	1	0	0	0	0	
14	0	0	0	0	529	1	0	0	0	0	
15	0	0	0	0	529	2	0	0	0	0	
0	0	0	0	0	528	1	0	0	0	0	
1	0	0	0	0	527	1	0	0	0	0	
2	0	0	0	0	527	1	0	0	0	0	
3	0	0	0	0	527	1	0	0	0	0	
4	0	0	0	0	527	1	0	0	0	0	
5	0	0	0	0	527	1	0	0	0	0	
6	0	0	0	0	527	1	0	0	0	0	
7	0	0	0	0	527	2	0	0	0	0	
8	0	0	0	0	526	1	0	0	0	0	
9	0	0	0	0	526	1	0	0	0	0	
10	0	0	0	0	526	1	0	0	0	0	
11	0	0	0	0	526	1	0	0	0	0	
12	0	0	0	0	526	1	0	0	0	0	
13	0	0	0	0	525	1	0	0	0	0	
14	0	0	0	0	524	1	0	0	0	0	
15	0	0	0	0	524	2	0	0	0	0	
0	0	0	0	0	523	1	0	0	0	0	
1	0	0	0	0	523	1	0	0	0	0	
2	0	0	0	0	523	1	0	0	0	0	
3	0	0	0	0	522	1	0	0	0	0	
4	0	0	0	0	522	0	0	0	0	0	
5	0	0	0	0	524	1	0	0	0	0	
6	0	0	0	0	525	1	0	0	0	0	
7	0	0	0	0	526	2	0	0	0	0	
8	0	0	0	0	526	1	0	0	0	0	
9	0	0	0	0	524	1	0	0	0	0	
10	0	0	0	0	524	1	0	0	0	0	
11	0	0	0	0	525	1	0	0	0	0	
12	0	0	0	0	524	0	0	0	0	0	
13	0	0	0	0	525	1	0	0	0	0	
14	0	0	0	0	525	1	0	0	0	0	
15	0	0	0	0	524	2	0	0	0	0	
0	0	0	0	0	524	1	0	0	0	0	
1	0	0	0	0	524	1	0	0	0	0	
2	0	0	0	0	524	1	0	0	0	0	
3	0	0	0	0	524	1	0	0	0	0	
4	0	0	0	0	524	0	0	0	0	0	
5	0	0	0	0	524	1	0	0	0	0	
6	0	0	0	0	524	1	0	0	0	0	
7	0	0	0	0	524	2	0	0	0	0	
8	0	0	0	0	524	1	0	0	0	0	
9	0	0	0	0	524	1	0	0	0	0	
10	0	0	0	0	524	0	0	0	0	0	
11	0	0	0	0	524	1	0	0	0	0	
12	0	0	0	0	524	1	0	0	0	0	
13	0	0	0	0	525	1	0	0	0	0	
14	0	0	0	0	525	1	0	0	0	0	
15	0	0	0	0	526	2	0	0	0	0	
0	0	0	0	0	528	1	0	0	0	0	
1	0	0	0	0	529	1	0	0	0	0	
2	0	0	0	0	528	1	0	0	0	0	
3	0	0	0	0	528	1	0	0	0	0	
4	0	0	0	0	528	1	0	0	0	0	
5	0	0	0	0	527	1	0	0	0	0	
6	0	0	0	0	525	1	0	0	0	0	
7	0	0	0	0	523	2	0	0	0	0	
8	0	0	0	0	519	1	0	0	0	0	
9	0	0	0	0	514	1	0	0	0	0	
10	0	0	0	0	511	0	0	0	0	0	
11	0	0	0	0	508	1	0	0	0	0	
12	0	0	0	0	504	1	0	0	0	0	
13	0	0	0	0	500	1	0	0	0	0	
14	0	0	0	0	495	1	0	0	0	0	
15	0	0	0	0	489	2	0	0	0	0	
0	0	0	0	0	481	0	0	0	0	0	
1	0	0	0	0	473	0	0	0	0	0	
2	0	0	0	0	464	1	0	0	0	0	
3	0	0	0	0	456	0	0	0	0	0	
4	0	0	0	0	448	0	0	0	0	0	
5	0	0	0	0	441	0	0	0	0	0	
6	0	0	0	0	435	0	0	0	0	0	
7	0	0	0	0	428	1	0	0	0	0	
8	0	0	0	0	422	0	0	0	0	0	
9	0	0	0	0	418	0	0	0	0	0	
10	0	0	0	0	414	0	0	0	0	0	
11	0	0	0	0	411	0	0	0	0	0	
12	0	0	0	0	407	0	0	0	0	0	
13	0	0	0	0	402	0	0	0	0	0	
14	0	0	0	0	396	0	0	0	0	0	
15	0	0	0	0	391	1	0	0	0	0	
0	0	0	0	0	387	0	0	0	0	0	
1	0	0	0	0	387	0	0	0	0	0	
2	0	0	0	0	393	0	0	0	0	0	
3	0	0	0	0	407	0	0	0	0	0	
4	0	0	0	0	426	0	0	0	0	0	
5	0	0	0	0	448	0	0	0	0	0	
6	0	0	0	0	472	1	0	0	0	0	
7	0	0	0	0	493	1	0	0	0	0	
8	0	0	0	0	513	1	0	0	0	0	
9	0	0	0	0	534	1	0	0	0	0	
10	0	0	0	0	551	1	0	0	0	0	
11	0	0	0	0	568	1	0	0	0	0	
12	0	0	0	0	583	1	0	0	0	0	
13	0	0	0	0	593	1	0	0	0	0	
14	0	0	0	0	602	1	0	0	0	0	
15	0	0	0	0	609	2	0	0	0	0	
0	0	0	0	0	616	1	0	0	0	0	
1	0	0	0	0	622	1	0	0	0	0	
2	0	0	0	0	626	2	0	0	0	0	
3	0	0	0	0	630	2	0	0	0	0	
4	0	0	0	0	632	1	0	0	0	0	
5	0	0	0	0	633	2	0	0	0	0	
6	0	0	0	0	633	2	0	0	0	0	
7	0	0	0	0	633	2	0	0	0	0	
8	0	0	0	0	632	2	0	0	0	0	
9	0	0	0	0	630	0	0	0	0	0	
10	0	0	0	0	627	2	0	0	0	0	
11	0	0	0	0	625	1	0	0	0	0	
12	0	0	0	0	623	1	0	0	0	0	
13	0	0	0	0	621	1	0	0	0	0	
14	0	0	0	0	616	2	0	0	0	0	
15	0	0	0	0	612	3	0	0	0	0	
0	0	0	0	0	608	1	0	0	0	0	
1	0	0	0	0	604	0	0	0	0	0	
2	0	0	0	0	600	1	0	0	0	0	
3	0	0	0	0	594	1	0	0	0	0	
4	0	0	0	0	588	1	0	0	0	0	
5	0	0	0	0	581	1	0	0	0	0	
6	0	0	0	0	573	1	0	0	0	0	
7	0	0	0	0	566	2	0	0	0	0	
8	0	0	0	0	559	1	0	0	0	0	
9	0	0	0	0	553	0	0	0	0	0	
10	0	0	0	0	546	1	0	0	0	0	
11	0	0	0	0	540	1	0	0	0	0	
12	0	0	0	0	535	1	0	0	0	0	
13	0	0	0	0	530	1	0	0	0	0	
14	0	0	0	0	526	1	0	0	0	0	
15	0	0	0	0	523	2	0	0	0	0	
0	0	0	0	0	520	1	0	0	0	0	
1	0	0	0	0	519	1	0	0	0	0	
2	0	0	0	0	516	0	0	0	0	0	
3	0	0	0	0	515	1	0	0	0	0	
4	0	0	0	0	514	1	0	0	0	0	
5	0	0	0	0	514	1	0	0	0	0	
6	0	0	0	0	513	1	0	0	0	0	
7	0	0	0	0	512	2	0	0	0	0	
8	0	0	0	0	512	1	0	0	0	0	
9	0	0	0	0	512	1	0	0	0	0	
10	0	0	0	0	511	0	0	0	0	0	
11	0	0	0	0	510	1	0	0	0	0	
12	0	0	0	0	509	1	0	0	0	0	
13	0	0	0	0	510	1	0	0	0	0	
14	0	0	0	0	510	1	0	0	0	0	
15	0	0	0	0	509	2	0	0	0	0	
0	0	0	0	0	508	1	0	0	0	0	
1	0	0	0	0	507	1	0	0	0	0	
2	0	0	0	0	506	0	0	0	0	0	
3	0	0	0	0	506	1	0	0	0	0	
4	0	0	0	0	506	1	0	0	0	0	
5	0	0	0	0	506	1	0	0	0	0	
6	0	0	0	0	507	1	0	0	0	0	
7	0	0	0	0	507	2	0	0	0	0	
8	0	0	0	0	507	1	0	0	0	0	
9	0	0	0	0	507	1	0	0	0	0	
10	0	0	0	0	508	1	0	0	0	0	
11	0	0	0	0	508	1	0	0	0	0	
12	0	0	0	0	507	0	0	0	0	0	
13	0	0	0	0	507	1	0	0	0	0	
14	0	0	0	0	507	1	0	0	0	0	
15	0	0	0	0	507	2	0	0	0	0	
0	0	0	0	0	505	1	0	0	0	0	
1	0	0	0	0	504	1	0	0	0	0	
2	0	0	0	0	503	1	0	0	0	0	
3	0	0	0	0	503	1	0	0	0	0	
4	0	0	0	0	503	0	0	0	0	0	
5	0	0	0	0	502	1	0	0	0	0	
6	0	0	0	0	503	1	0	0	0	0	
7	0	0	0	0	503	2	0	0	0	0	
8	0	0	0	0	502	1	0	0	0	0	
9	0	0	0	0	502	1	0	0	0	0	
10	0	0	0	0	502	1	0	0	0	0	
11	0	0	0	0	503	1	0	0	0	0	
12	0	0	0	0	502	1	0	0	0	0	
13	0	0	0	0	502	0	0	0	0	0	
14	0	0	0	0	503	1	0	0	0	0	
15	0	0	0	0	503	2	0	0	0	0	
0	0	0	0	0	502	1	0	0	0	0	
1	0	0	0	0	503	1	0	0	0	0	
2	0	0	0	0	503	1	0	0	0	0	
3	0	0	0	0	502	1	0	0	0	0	
4	0	0	0	0	502	1	0	0	0	0	
5	0	0	0	0	503	1	0	0	0	0	
6	0	0	0	0	504	1	0	0	0	0	
7	0	0	0	0	503	2	0	0	0	0	
8	0	0	0	0	503	1	0	0	0	0	
9	0	0	0	0	503	1	0	0	0	0	
10	0	0	0	0	503	1	0	0	0	0	
11	0	0	0	0	502	1	0	0	0	0	
12	0	0	0	0	501	1	0	0	0	0	
13	0	0	0	0	500	0	0	0	0	0	
14	0	0	0	0	499	1	0	0	0	0	
15	0	0	0	0	498	2	0	0	0	0	
0	0	0	0	0	497	1	0	0	0	0	
1	0	0	0	0	498	1	0	0	0	0	
2	0	0	0	0	498	1	0	0	0	0	
3	0	0	0	0	499	1	0	0	0	0	
4	0	0	0	0	500	1	0	0	0	0	
5	0	0	0	0	500	1	0	0	0	0	
6	0	0	0	0	501	1	0	0	0	0	
7	0	0	0	0	502	1	0	0	0	0	
8	0	0	0	0	503	1	0	0	0	0	
9	0	0	0	0	502	1	0	0	0	0	
10	0	0	0	0	502	1	0	0	0	0	
11	0	0	0	0	501	1	0	0	0	0	
12	0	0	0	0	501	1	0	0	0	0	
13	0	0	0	0	501	1	0	0	0	0	
14	0	0	0	0	501	1	0	0	0	0	
15	0	0	0	0	501	1	0	0	0	0	
0	0	0	0	0	501	1	0	0	0	0	
1	0	0	0	0	500	1	0	0	0	0	
2	0	0	0	0	498	1	0	0	0	0	
3	0	0	0	0	499	1	0	0	0	0	
4	0	0	0	0	499	1	0	0	0	0	
5	0	0	0	0	501	1	0	0	0	0	
6	0	0	0	0	502	1	0	0	0	0	
7	0	0	0	0	502	2	0	0	0	0	
8	0	0	0	0	502	1	0	0	0	0	
9	0	0	0	0	502	1	0	0	0	0	
10	0	0	0	0	503	1	0	0	0	0	
11	0	0	0	0	503	1	0	0	0	0	
12	0	0	0	0	503	1	0	0	0	0	
13	0	0	0	0	504	1	0	0	0	0	
14	0	0	0	0	503	1	0	0	0	0	
15	0	0	0	0	503	2	0	0	0	0	
0	0	0	0	0	503	1	0	0	0	0	
1	0	0	0	0	503	1	0	0	0	0	
2	0	0	0	0	503	1	0	0	0	0	
3	0	0	0	0	502	1	0	0	0	0	
4	0	0	0	0	501	1	0	0	0	0	
5	0	0	0	0	500	0	0	0	0	0	
6	0	0	0	0	500	1	0	0	0	0	
7	0	0	0	0	500	2	0	0	0	0	
8	0	0	0	0	499	1	0	0	0	0	
9	0	0	0	0	499	1	0	0	0	0	
10	0	0	0	0	500	1	0	0	0	0	
11	0	0	0	0	502	1	0	0	0	0	
12	0	0	0	0	502	0	0	0	0	0	
13	0	0	0	0	502	1	0	0	0	0	
14	0	0	0	0	502	1	0	0	0	0	
15	0	0	0	0	502	2	0	0	0	0	
0	0	0	0	0	503	1	0	0	0	0	
1	0	0	0	0	503	1	0	0	0	0	
2	0	0	0	0	503	1	0	0	0	0	
3	0	0	0	0	502	1	0	0	0	0	
4	0	0	0	0	501	0	0	0	0	0	
5	0	0	0	0	501	1	0	0	0	0	
6	0	0	0	0	501	1	0	0	0	0	
7	0	0	0	0	500	2	0	0	0	0	
8	0	0	0	0	500	1	0	0	0	0	
9	0	0	0	0	499	1	0	0	0	0	
10	0	0	0	0	499	1	0	0	0	0	
11	0	0	0	0	499	1	0	0	0	0	
12	0	0	0	0	499	0	0	0	0	0	
13	0	0	0	0	499	1	0	0	0	0	
14	0	0	0	0	499	1	0	0	0	0	
15	0	0	0	0	498	2	0	0	0	0	
0	0	0	0	0	499	1	0	0	0	0	
1	0	0	0	0	499	1	0	0	0	0	
2	0	0	0	0	499	0	0	0	0	0	
3	0	0	0	0	498	1	0	0	0	0	
4	0	0	0	0	498	1	0	0	0	0	
5	0	0	0	0	498	1	0	0	0	0	
6	0	0	0	0	498	1	0	0	0	0	
7	0	0	0	0	498	2	0	0	0	0	
8	0	0	0	0	498	1	0	0	0	0	
9	0	0	0	0	497	1	0	0	0	0	
10	0	0	0	0	497	0	0	0	0	0	
11	0	0	0	0	496	1	0	0	0	0	
12	0	0	0	0	497	1	0	0	0	0	
13	0	0	0	0	498	1	0	0	0	0	
14	0	0	0	0	498	1	0	0	0	0	
15	0	0	0	0	498	2	0	0	0	0	
0	0	0	0	0	498	1	0	0	0	0	
1	0	0	0	0	497	1	0	0	0	0	
2	0	0	0	0	497	0	0	0	0	0	
3	0	0	0	0	497	1	0	0	0	0	
4	0	0	0	0	496	1	0	0	0	0	
5	0	0	0	0	496	1	0	0	0	0	
6	0	0	0	0	495	1	0	0	0	0	
7	0	0	0	0	495	2	0	0	0	0	
8	0	0	0	0	495	1	0	0	0	0	
9	0	0	0	0	496	0	0	0	0	0	
10	0	0	0	0	496	1	0	0	0	0	
11	0	0	0	0	496	1	0	0	0	0	
12	0	0	0	0	495	1	0	0	0	0	
13	0	0	0	0	494	1	0	0	0	0	
14	0	0	0	0	494	1	0	0	0	0	
15	0	0	0	0	493	2	0	0	0	0	
0	0	0	0	0	492	1	0	0	0	0	
1	0	0	0	0	492	0	0	0	0	0	
2	0	0	0	0	493	1	0	0	0	0	
3	0	0	0	0	494	1	0	0	0	0	
4	0	0	0	0	494	1	0	0	0	0	
5	0	0	0	0	493	1	0	0	0	0	
6	0	0	0	0	494	1	0	0	0	0	
7	0	0	0	0	495	2	0	0	0	0	
8	0	0	0	0	495	1	0	0	0	0	
9	0	0	0	0	495	0	0	0	0	0	
10	0	0	0	0	495	1	0	0	0	0	
11	0	0	0	0	496	1	0	0	0	0	
12	0	0	0	0	496	1	0	0	0	0	
13	0	0	0	0	496	1	0	0	0	0	
14	0	0	0	0	495	1	0	0	0	0	
15	0	0	0	0	495	1	0	0	0	0	
0	0	0	0	0	496	1	0	0	0	0	
1	0	0	0	0	497	1	0	0	0	0	
2	0	0	0	0	497	1	0	0	0	0	
3	0	0	0	0	498	1	0	0	0	0	
4	0	0	0	0	499	1	0	0	0	0	
5	0	0	0	0	500	1	0	0	0	0	
6	0	0	0	0	499	1	0	0	0	0	
7	0	0	0	0	499	1	0	0	0	0	
8	0	0	0	0	499	1	0	0	0	0	
9	0	0	0	0	499	1	0	0	0	0	
10	0	0	0	0	498	1	0	0	0	0	
11	0	0	0	0	497	1	0	0	0	0	
12	0	0	0	0	497	1	0	0	0	0	
13	0	0	0	0	499	1	0	0	0	0	
14	0	0	0	0	500	1	0	0	0	0	
15	0	0	0	0	502	1	0	0	0	0	
0	0	0	0	0	504	1	0	0	0	0	
1	0	0	0	0	503	1	0	0	0	0	
2	0	0	0	0	503	1	0	0	0	0	
3	0	0	0	0	504	1	0	0	0	0	
4	0	0	0	0	505	1	0	0	0	0	
5	0	0	0	0	505	1	0	0	0	0	
6	0	0	0	0	506	1	0	0	0	0	
7	0	0	0	0	508	2	0	0	0	0	
8	0	0	0	0	508	1	0	0	0	0	
9	0	0	0	0	509	0	0	0	0	0	
10	0	0	0	0	510	1	0	0	0	0	
11	0	0	0	0	511	1	0	0	0	0	
12	0	0	0	0	512	1	0	0	0	0	
13	0	0	0	0	513	1	0	0	0	0	
14	0	0	0	0	515	1	0	0	0	0	
15	0	0	0	0	516	2	0	0	0	0	
0	0	0	0	0	517	1	0	0	0	0	
1	0	0	0	0	517	0	0	0	0	0	
2	0	0	0	0	518	1	0	0	0	0	
3	0	0	0	0	519	1	0	0	0	0	
4	0	0	0	0	520	1	0	0	0	0	
5	0	0	0	0	521	1	0	0	0	0	
6	0	0	0	0	522	1	0	0	0	0	
7	0	0	0	0	523	2	0	0	0	0	
8	0	0	0	0	524	1	0	0	0	0	
9	0	0	0	0	524	1	0	0	0	0	
10	0	0	0	0	525	0	0	0	0	0	
11	0	0	0	0	526	1	0	0	0	0	
12	0	0	0	0	526	1	0	0	0	0	
13	0	0	0	0	526	1	0	0	0	0	
14	0	0	0	0	527	1	0	0	0	0	
15	0	0	0	0	528	2	0	0	0	0	
0	0	0	0	0	528	1	0	0	0	0	
1	0	0	0	0	528	1	0	0	0	0	
2	0	0	0	0	528	1	0	0	0	0	
3	0	0	0	0	528	1	0	0	0	0	
4	0	0	0	0	528	1	0	0	0	0	
5	0	0	0	0	529	1	0	0	0	0	
6	0	0	0	0	530	1	0	0	0	0	
7	0	0	0	0	530	2	0	0	0	0	
8	0	0	0	0	530	1	0	0	0	0	
9	0	0	0	0	530	1	0	0	0	0	
10	0	0	0	0	532	0	0	0	0	0	
11	0	0	0	0	532	1	0	0	0	0	
12	0	0	0	0	533	1	0	0	0	0	
13	0	0	0	0	534	1	0	0	0	0	
14	0	0	0	0	535	1	0	0	0	0	
15	0	0	0	0	535	2	0	0	0	0	
0	0	0	0	0	534	1	0	0	0	0	
1	0	0	0	0	535	1	0	0	0	0	
2	0	0	0	0	535	1	0	0	0	0	
3	0	0	0	0	535	1	0	0	0	0	
4	0	0	0	0	535	0	0	0	0	0	
5	0	0	0	0	534	1	0	0	0	0	
6	0	0	0	0	536	1	0	0	0	0	
7	0	0	0	0	536	2	0	0	0	0	
8	0	0	0	0	537	1	0	0	0	0	
9	0	0	0	0	539	1	0	0	0	0	
10	0	0	0	0	539	1	0	0	0	0	
11	0	0	0	0	540	1	0	0	0	0	
12	0	0	0	0	540	0	0	0	0	0	
13	0	0	0	0	540	1	0	0	0	0	
14	0	0	0	0	540	1	0	0	0	0	
15	0	0	0	0	542	2	0	0	0	0	
0	0	0	0	0	542	1	0	0	0	0	
1	0	0	0	0	541	1	0	0	0	0	
2	0	0	0	0	541	1	0	0	0	0	
3	0	0	0	0	540	1	0	0	0	0	
4	0	0	0	0	540	0	0	0	0	0	
5	0	0	0	0	539	1	0	0	0	0	
6	0	0	0	0	538	1	0	0	0	0	
7	0	0	0	0	538	2	0	0	0	0	
8	0	0	0	0	539	1	0	0	0	0	
9	0	0	0	0	539	1	0	0	0	0	
10	0	0	0	0	537	1	0	0	0	0	
11	0	0	0	0	536	1	0	0	0	0	
12	0	0	0	0	537	1	0	0	0	0	
13	0	0	0	0	536	1	0	0	0	0	
14	0	0	0	0	537	1	0	0	0	0	
15	0	0	0	0	537	2	0	0	0	0	
0	0	0	0	0	536	1	0	0	0	0	
1	0	0	0	0	536	1	0	0	0	0	
2	0	0	0	0	535	1	0	0	0	0	
3	0	0	0	0	535	1	0	0	0	0	
4	0	0	0	0	535	1	0	0	0	0	
5	0	0	0	0	535	1	0	0	0	0	
6	0	0	0	0	535	1	0	0	0	0	
7	0	0	0	0	535	2	0	0	0	0	
8	0	0	0	0	535	1	0	0	0	0	
9	0	0	0	0	534	1	0	0	0	0	
10	0	0	0	0	534	1	0	0	0	0	
11	0	0	0	0	534	1	0	0	0	0	
12	0	0	0	0	533	1	0	0	0	0	
13	0	0	0	0	532	1	0	0	0	0	
14	0	0	0	0	532	1	0	0	0	0	
15	0	0	0	0	532	1	0	0	0	0	
0	0	0	0	0	531	1	0	0	0	0	
1	0	0	0	0	530	1	0	0	0	0	
2	0	0	0	0	529	1	0	0	0	0	
3	0	0	0	0	529	1	0	0	0	0	
4	0	0	0	0	529	1	0	0	0	0	
5	0	0	0	0	528	1	0	0	0	0	
6	0	0	0	0	527	1	0	0	0	0	
7	0	0	0	0	528	1	0	0	0	0	
8	0	0	0	0	528	1	0	0	0	0	
9	0	0	0	0	528	1	0	0	0	0	
10	0	0	0	0	528	1	0	0	0	0	
11	0	0	0	0	528	1	0	0	0	0	
12	0	0	0	0	528	1	0	0	0	0	
13	0	0	0	0	528	1	0	0	0	0	
14	0	0	0	0	528	1	0	0	0	0	
15	0	0	0	0	528	1	0	0	0	0	
0	0	0	0	0	529	1	0	0	0	0	
1	0	0	0	0	529	1	0	0	0	0	
2	0	0	0	0	527	1	0	0	0	0	
3	0	0	0	0	528	1	0	0	0	0	
4	0	0	0	0	527	1	0	0	0	0	
5	0	0	0	0	528	1	0	0	0	0	
6	0	0	0	0	529	1	0	0	0	0	
7	0	0	0	0	530	2	0	0	0	0	
8	0	0	0	0	529	1	0	0	0	0	
9	0	0	0	0	529	1	0	0	0	0	
10	0	0	0	0	529	1	0	0	0	0	
11	0	0	0	0	529	1	0	0	0	0	
12	0	0	0	0	528	1	0	0	0	0	
13	0	0	0	0	527	1	0	0	0	0	
14	0	0	0	0	527	1	0	0	0	0	
15	0	0	0	0	527	2	0	0	0	0	
0	0	0	0	0	528	1	0	0	0	0	
1	0	0	0	0	528	1	0	0	0	0	
2	0	0	0	0	527	1	0	0	0	0	
3	0	0	0	0	527	1	0	0	0	0	
4	0	0	0	0	527	1	0	0	0	0	
5	0	0	0	0	526	1	0	0	0	0	
6	0	0	0	0	526	1	0	0	0	0	
7	0	0	0	0	524	2	0	0	0	0	
8	0	0	0	0	523	1	0	0	0	0	
9	0	0	0	0	522	1	0	0	0	0	
10	0	0	0	0	522	1	0	0	0	0	
11	0	0	0	0	522	1	0	0	0	0	
12	0	0	0	0	521	0	0	0	0	0	
13	0	0	0	0	519	1	0	0	0	0	
14	0	0	0	0	519	1	0	0	0	0	
15	0	0	0	0	520	2	0	0	0	0	
0	0	0	0	0	521	1	0	0	0	0	
1	0	0	0	0	521	1	0	0	0	0	
2	0	0	0	0	522	1	0	0	0	0	
3	0	0	0	0	523	1	0	0	0	0	
4	0	0	0	0	523	0	0	0	0	0	
5	0	0	0	0	522	1	0	0	0	0	
6	0	0	0	0	521	1	0	0	0	0	
7	0	0	0	0	520	2	0	0	0	0	
8	0	0	0	0	519	1	0	0	0	0	
9	0	0	0	0	519	1	0	0	0	0	
10	0	0	0	0	520	1	0	0	0	0	
11	0	0	0	0	520	1	0	0	0	0	
12	0	0	0	0	519	1	0	0	0	0	
13	0	0	0	0	519	1	0	0	0	0	
14	0	0	0	0	520	1	0	0	0	0	
15	0	0	0	0	521	2	0	0	0	0	
0	0	0	0	0	521	1	0	0	0	0	
1	0	0	0	0	521	1	0	0	0	0	
2	0	0	0	0	519	0	0	0	0	0	
3	0	0	0	0	519	1	0	0	0	0	
4	0	0	0	0	518	1	0	0	0	0	
5	0	0	0	0	518	1	0	0	0	0	
6	0	0	0	0	519	1	0	0	0	0	
7	0	0	0	0	519	2	0	0	0	0	
8	0	0	0	0	518	1	0	0	0	0	
9	0	0	0	0	517	1	0	0	0	0	
10	0	0	0	0	518	0	0	0	0	0	
11	0	0	0	0	519	1	0	0	0	0	
12	0	0	0	0	520	1	0	0	0	0	
13	0	0	0	0	520	1	0	0	0	0	
14	0	0	0	0	521	1	0	0	0	0	
15	0	0	0	0	520	2	0	0	0	0	
0	0	0	0	0	521	1	0	0	0	0	
1	0	0	0	0	521	1	0	0	0	0	
2	0	0	0	0	521	1	0	0	0	0	
3	0	0	0	0	522	1	0	0	0	0	
4	0	0	0	0	523	1	0	0	0	0	
5	0	0	0	0	523	1	0	0	0	0	
6	0	0	0	0	523	1	0	0	0	0	
7	0	0	0	0	524	2	0	0	0	0	
8	0	0	0	0	523	1	0	0	0	0	
9	0	0	0	0	523	0	0	0	0	0	
10	0	0	0	0	522	1	0	0	0	0	
11	0	0	0	0	523	1	0	0	0	0	
12	0	0	0	0	522	1	0	0	0	0	
13	0	0	0	0	522	1	0	0	0	0	
14	0	0	0	0	521	1	0	0	0	0	
15	0	0	0	0	521	2	0	0	0	0	
0	0	0	0	0	520	1	0	0	0	0	
1	0	0	0	0	520	0	0	0	0	0	
2	0	0	0	0	519	1	0	0	0	0	
3	0	0	0	0	519	1	0	0	0	0	
4	0	0	0	0	519	1	0	0	0	0	
5	0	0	0	0	518	1	0	0	0	0	
6	0	0	0	0	518	1	0	0	0	0	
7	0	0	0	0	519	2	0	0	0	0	
8	0	0	0	0	520	1	0	0	0	0	
9	0	0	0	0	521	1	0	0	0	0	
10	0	0	0	0	520	1	0	0	0	0	
11	0	0	0	0	520	1	0	0	0	0	
12	0	0	0	0	520	1	0	0	0	0	
13	0	0	0	0	520	1	0	0	0	0	
14	0	0	0	0	520	1	0	0	0	0	
15	0	0	0	0	520	1	0	0	0	0	
0	0	0	0	0	519	1	0	0	0	0	
1	0	0	0	0	518	1	0	0	0	0	
2	0	0	0	0	517	1	0	0	0	0	
3	0	0	0	0	516	1	0	0	0	0	
4	0	0	0	0	517	1	0	0	0	0	
5	0	0	0	0	519	1	0	0	0	0	
6	0	0	0	0	519	1	0	0	0	0	
7	0	0	0	0	520	1	0	0	0	0	
8	0	0	0	0	521	1	0	0	0	0	
9	0	0	0	0	521	1	0	0	0	0	
10	0	0	0	0	522	1	0	0	0	0	
11	0	0	0	0	523	1	0	0	0	0	
12	0	0	0	0	523	1	0	0	0	0	
13	0	0	0	0	522	1	0	0	0	0	
14	0	0	0	0	521	1	0	0	0	0	
15	0	0	0	0	521	2	0	0	0	0	
0	0	0	0	0	521	1	0	0	0	0	
1	0	0	0	0	518	0	0	0	0	0	
2	0	0	0	0	517	1	0	0	0	0	
3	0	0	0	0	516	1	0	0	0	0	
4	0	0	0	0	516	1	0	0	0	0	
5	0	0	0	0	515	1	0	0	0	0	
6	0	0	0	0	515	1	0	0	0	0	
7	0	0	0	0	517	2	0	0	0	0	
8	0	0	0	0	517	1	0	0	0	0	
9	0	0	0	0	518	0	0	0	0	0	
10	0	0	0	0	518	1	0	0	0	0	
11	0	0	0	0	518	1	0	0	0	0	
12	0	0	0	0	519	1	0	0	0	0	
13	0	0	0	0	519	1	0	0	0	0	
14	0	0	0	0	518	1	0	0	0	0	
15	0	0	0	0	517	2	0	0	0	0	
0	0	0	0	0	516	1	0	0	0	0	
1	0	0	0	0	516	0	0	0	0	0	
2	0	0	0	0	516	1	0	0	0	0	
3	0	0	0	0	517	1	0	0	0	0	
4	0	0	0	0	516	1	0	0	0	0	
5	0	0	0	0	516	1	0	0	0	0	
6	0	0	0	0	516	1	0	0	0	0	
7	0	0	0	0	516	2	0	0	0	0	
8	0	0	0	0	516	1	0	0	0	0	
9	0	0	0	0	516	1	0	0	0	0	
10	0	0	0	0	515	1	0	0	0	0	
11	0	0	0	0	514	1	0	0	0	0	
12	0	0	0	0	514	1	0	0	0	0	
13	0	0	0	0	515	1	0	0	0	0	
14	0	0	0	0	516	1	0	0	0	0	
15	0	0	0	0	517	2	0	0	0	0	
0	0	0	0	0	517	1	0	0	0	0	
1	0	0	0	0	517	1	0	0	0	0	
2	0	0	0	0	518	0	0	0	0	0	
3	0	0	0	0	518	1	0	0	0	0	
4	0	0	0	0	518	1	0	0	0	0	
5	0	0	0	0	518	1	0	0	0	0	
6	0	0	0	0	518	1	0	0	0	0	
7	0	0	0	0	517	2	0	0	0	0	
8	0	0	0	0	516	1	0	0	0	0	
9	0	0	0	0	516	1	0	0	0	0	
10	0	0	0	0	517	1	0	0	0	0	
11	0	0	0	0	516	1	0	0	0	0	
12	0	0	0	0	515	0	0	0	0	0	
13	0	0	0	0	515	1	0	0	0	0	
14	0	0	0	0	515	1	0	0	0	0	
15	0	0	0	0	515	2	0	0	0	0	
0	0	0	0	0	516	1	0	0	0	0	
1	0	0	0	0	516	1	0	0	0	0	
2	0	0	0	0	518	1	0	0	0	0	
3	0	0	0	0	519	1	0	0	0	0	
4	0	0	0	0	519	0	0	0	0	0	
5	0	0	0	0	519	1	0	0	0	0	
6	0	0	0	0	518	1	0	0	0	0	
7	0	0	0	0	518	2	0	0	0	0	
8	0	0	0	0	519	1	0	0	0	0	
9	0	0	0	0	520	1	0	0	0	0	
10	0	0	0	0	520	1	0	0	0	0	
11	0	0	0	0	520	1	0	0	0	0	
12	0	0	0	0	519	0	0	0	0	0	
13	0	0	0	0	518	1	0	0	0	0	
14	0	0	0	0	517	1	0	0	0	0	
15	0	0	0	0	516	2	0	0	0	0	
0	0	0	0	0	515	1	0	0	0	0	
1	0	0	0	0	514	1	0	0	0	0	
2	0	0	0	0	514	1	0	0	0	0	
3	0	0	0	0	514	1	0	0	0	0	
4	0	0	0	0	514	1	0	0	0	0	
5	0	0	0	0	514	0	0	0	0	0	
6	0	0	0	0	514	1	0	0	0	0	
7	0	0	0	0	515	2	0	0	0	0	
8	0	0	0	0	514	1	0	0	0	0	
9	0	0	0	0	514	1	0	0	0	0	
10	0	0	0	0	515	1	0	0	0	0	
11	0	0	0	0	515	1	0	0	0	0	
12	0	0	0	0	515	1	0	0	0	0	
13	0	0	0	0	515	1	0	0	0	0	
14	0	0	0	0	515	1	0	0	0	0	
15	0	0	0	0	516	2	0	0	0	0	
0	0	0	0	0	516	1	0	0	0	0	
1	0	0	0	0	516	1	0	0	0	0	
2	0	0	0	0	515	1	0	0	0	0	
3	0	0	0	0	515	1	0	0	0	0	
4	0	0	0	0	515	1	0	0	0	0	
5	0	0	0	0	514	1	0	0	0	0	
6	0	0	0	0	512	1	0	0	0	0	
7	0	0	0	0	512	1	0	0	0	0	
8	0	0	0	0	512	1	0	0	0	0	
9	0	0	0	0	512	1	0	0	0	0	
10	0	0	0	0	511	1	0	0	0	0	
11	0	0	0	0	511	1	0	0	0	0	
12	0	0	0	0	511	1	0	0	0	0	
13	0	0	0	0	511	1	0	0	0	0	
14	0	0	0	0	511	1	0	0	0	0	
15	0	0	0	0	512	1	0	0	0	0	
0	0	0	0	0	513	1	0	0	0	0	
1	0	0	0	0	511	1	0	0	0	0	
2	0	0	0	0	512	1	0	0	0	0	
3	0	0	0	0	512	1	0	0	0	0	
4	0	0	0	0	512	1	0	0	0	0	
5	0	0	0	0	511	1	0	0	0	0	
6	0	0	0	0	510	1	0	0	0	0	
7	0	0	0	0	509	1	0	0	0	0	
8	0	0	0	0	509	1	0	0	0	0	
9	0	0	0	0	508	1	0	0	0	0	
10	0	0	0	0	506	1	0	0	0	0	
11	0	0	0	0	504	1	0	0	0	0	
12	0	0	0	0	504	1	0	0	0	0	
13	0	0	0	0	503	0	0	0	0	0	
14	0	0	0	0	500	1	0	0	0	0	
15	0	0	0	0	497	2	0	0	0	0	
0	0	0	0	0	495	1	0	0	0	0	
1	0	0	0	0	492	1	0	0	0	0	
2	0	0	0	0	491	1	0	0	0	0	
3	0	0	0	0	490	1	0	0	0	0	
4	0	0	0	0	489	1	0	0	0	0	
5	0	0	0	0	490	0	0	0	0	0	
6	0	0	0	0	491	1	0	0	0	0	
7	0	0	0	0	490	2	0	0	0	0	
8	0	0	0	0	491	1	0	0	0	0	
9	0	0	0	0	491	1	0	0	0	0	
10	0	0	0	0	491	1	0	0	0	0	
11	0	0	0	0	492	1	0	0	0	0	
12	0	0	0	0	494	1	0	0	0	0	
13	0	0	0	0	495	0	0	0	0	0	
14	0	0	0	0	496	1	0	0	0	0	
15	0	0	0	0	497	2	0	0	0	0	
0	0	0	0	0	499	1	0	0	0	0	
1	0	0	0	0	500	1	0	0	0	0	
2	0	0	0	0	502	1	0	0	0	0	
3	0	0	0	0	502	1	0	0	0	0	
4	0	0	0	0	503	0	0	0	0	0	
5	0	0	0	0	502	1	0	0	0	0	
6	0	0	0	0	503	1	0	0	0	0	
7	0	0	0	0	503	2	0	0	0	0	
8	0	0	0	0	504	1	0	0	0	0	
9	0	0	0	0	505	1	0	0	0	0	
10	0	0	0	0	505	1	0	0	0	0	
11	0	0	0	0	505	1	0	0	0	0	
12	0	0	0	0	506	0	0	0	0	0	
13	0	0	0	0	506	1	0	0	0	0	
14	0	0	0	0	506	1	0	0	0	0	
15	0	0	0	0	507	2	0	0	0	0	
0	0	0	0	0	508	1	0	0	0	0	
1	0	0	0	0	508	1	0	0	0	0	
2	0	0	0	0	508	1	0	0	0	0	
3	0	0	0	0	508	1	0	0	0	0	
4	0	0	0	0	509	0	0	0	0	0	
5	0	0	0	0	509	1	0	0	0	0	
6	0	0	0	0	511	1	0	0	0	0	
7	0	0	0	0	512	2	0	0	0	0	
8	0	0	0	0	514	1	0	0	0	0	
9	0	0	0	0	517	1	0	0	0	0	
10	0	0	0	0	520	0	0	0	0	0	
11	0	0	0	0	524	1	0	0	0	0	
12	0	0	0	0	525	1	0	0	0	0	
13	0	0	0	0	527	1	0	0	0	0	
14	0	0	0	0	528	1	0	0	0	0	
15	0	0	0	0	529	2	0	0	0	0	
0	0	0	0	0	530	1	0	0	0	0	
1	0	0	0	0	530	1	0	0	0	0	
2	0	0	0	0	530	1	0	0	0	0	
3	0	0	0	0	531	1	0	0	0	0	
4	0	0	0	0	529	1	0	0	0	0	
5	0	0	0	0	528	1	0	0	0	0	
6	0	0	0	0	528	1	0	0	0	0	
7	0	0	0	0	528	2	0	0	0	0	
8	0	0	0	0	528	1	0	0	0	0	
9	0	0	0	0	528	1	0	0	0	0	
10	0	0	0	0	528	1	0	0	0	0	
11	0	0	0	0	529	1	0	0	0	0	
12	0	0	0	0	531	1	0	0	0	0	
13	0	0	0	0	531	1	0	0	0	0	
14	0	0	0	0	529	1	0	0	0	0	
15	0	0	0	0	529	2	0	0	0	0	
0	0	0	0	0	529	1	0	0	0	0	
1	0	0	0	0	529	0	0	0	0	0	
2	0	0	0	0	528	1	0	0	0	0	
3	0	0	0	0	529	1	0	0	0	0	
4	0	0	0	0	529	1	0	0	0	0	
5	0	0	0	0	528	1	0	0	0	0	
6	0	0	0	0	527	1	0	0	0	0	
7	0	0	0	0	526	2	0	0	0	0	
8	0	0	0	0	527	1	0	0	0	0	
9	0	0	0	0	527	0	0	0	0	0	
10	0	0	0	0	527	1	0	0	0	0	
11	0	0	0	0	527	1	0	0	0	0	
12	0	0	0	0	528	1	0	0	0	0	
13	0	0	0	0	527	1	0	0	0	0	
14	0	0	0	0	526	1	0	0	0	0	
15	0	0	0	0	526	2	0	0	0	0	
0	0	0	0	0	524	1	0	0	0	0	
1	0	0	0	0	524	0	0	0	0	0	
2	0	0	0	0	524	1	0	0	0	0	
3	0	0	0	0	525	1	0	0	0	0	
4	0	0	0	0	525	1	0	0	0	0	
5	0	0	0	0	527	1	0	0	0	0	
6	0	0	0	0	526	1	0	0	0	0	
7	0	0	0	0	526	1	0	0	0	0	
8	0	0	0	0	526	1	0	0	0	0	
9	0	0	0	0	525	1	0	0	0	0	
10	0	0	0	0	526	1	0	0	0	0	
11	0	0	0	0	527	1	0	0	0	0	
12	0	0	0	0	527	1	0	0	0	0	
13	0	0	0	0	527	1	0	0	0	0	
14	0	0	0	0	527	1	0	0	0	0	
15	0	0	0	0	528	1	0	0	0	0	
0	0	0	0	0	528	1	0	0	0	0	
1	0	0	0	0	527	1	0	0	0	0	
2	0	0	0	0	527	1	0	0	0	0	
3	0	0	0	0	527	1	0	0	0	0	
4	0	0	0	0	526	1	0	0	0	0	
5	0	0	0	0	526	1	0	0	0	0	
6	0	0	0	0	526	1	0	0	0	0	
7	0	0	0	0	527	1	0	0	0	0	
8	0	0	0	0	528	1	0	0	0	0	
9	0	0	0	0	529	0	0	0	0	0	
10	0	0	0	0	531	1	0	0	0	0	
11	0	0	0	0	531	1	0	0	0	0	
12	0	0	0	0	532	1	0	0	0	0	
13	0	0	0	0	534	1	0	0	0	0	
14	0	0	0	0	534	1	0	0	0	0	
15	0	0	0	0	534	2	0	0	0	0	
0	0	0	0	0	533	1	0	0	0	0	
1	0	0	0	0	534	0	0	0	0	0	
2	0	0	0	0	532	1	0	0	0	0	
3	0	0	0	0	529	1	0	0	0	0	
4	0	0	0	0	528	1	0	0	0	0	
5	0	0	0	0	526	1	0	0	0	0	
6	0	0	0	0	523	1	0	0	0	0	
7	0	0	0	0	519	2	0	0	0	0	
8	0	0	0	0	516	1	0	0	0	0	
9	0	0	0	0	511	0	0	0	0	0	
10	0	0	0	0	507	1	0	0	0	0	
11	0	0	0	0	502	1	0	0	0	0	
12	0	0	0	0	496	1	0	0	0	0	
13	0	0	0	0	488	1	0	0	0	0	
14	0	0	0	0	479	1	0	0	0	0	
15	0	0	0	0	470	1	0	0	0	0	
0	0	0	0	0	458	1	0	0	0	0	
1	0	0	0	0	447	0	0	0	0	0	
2	0	0	0	0	437	0	0	0	0	0	
3	0	0	0	0	429	0	0	0	0	0	
4	0	0	0	0	423	0	0	0	0	0	
5	0	0	0	0	415	0	0	0	0	0	
6	0	0	0	0	408	0	0	0	0	0	
7	0	0	0	0	403	1	0	0	0	0	
8	0	0	0	0	401	0	0	0	0	0	
9	0	0	0	0	399	0	0	0	0	0	
10	0	0	0	0	396	0	0	0	0	0	
11	0	0	0	0	391	0	0	0	0	0	
12	0	0	0	0	387	0	0	0	0	0	
13	0	0	0	0	382	0	0	0	0	0	
14	0	0	0	0	377	0	0	0	0	0	
15	0	0	0	0	376	1	0	0	0	0	
0	0	0	0	0	382	0	0	0	0	0	
1	0	0	0	0	394	0	0	0	0	0	
2	0	0	0	0	412	0	0	0	0	0	
3	0	0	0	0	432	0	0	0	0	0	
4	0	0	0	0	455	0	0	0	0	0	
5	0	0	0	0	479	1	0	0	0	0	
6	0	0	0	0	501	1	0	0	0	0	
7	0	0	0	0	522	2	0	0	0	0	
8	0	0	0	0	543	1	0	0	0	0	
9	0	0	0	0	561	1	0	0	0	0	
10	0	0	0	0	579	1	0	0	0	0	
11	0	0	0	0	592	1	0	0	0	0	
12	0	0	0	0	603	0	0	0	0	0	
13	0	0	0	0	612	1	0	0	0	0	
14	0	0	0	0	620	2	0	0	0	0	
15	0	0	0	0	627	3	0	0	0	0	
0	0	0	0	0	631	2	0	0	0	0	
1	0	0	0	0	634	2	0	0	0	0	
2	0	0	0	0	637	2	0	0	0	0	
3	0	0	0	0	639	1	0	0	0	0	
4	0	0	0	0	640	0	0	0	0	0	
5	0	0	0	0	640	2	0	0	0	0	
6	0	0	0	0	640	2	0	0	0	0	
7	0	0	0	0	639	3	0	0	0	0	
8	0	0	0	0	639	2	0	0	0	0	
9	0	0	0	0	638	2	0	0	0	0	
10	0	0	0	0	636	2	0	0	0	0	
11	0	0	0	0	632	2	0	0	0	0	
12	0	0	0	0	629	2	0	0	0	0	
13	0	0	0	0	624	1	0	0	0	0	
14	0	0	0	0	619	1	0	0	0	0	
15	0	0	0	0	614	3	0	0	0	0	
0	0	0	0	0	607	1	0	0	0	0	
1	0	0	0	0	600	1	0	0	0	0	
2	0	0	0	0	592	1	0	0	0	0	
3	0	0	0	0	584	1	0	0	0	0	
4	0	0	0	0	576	1	0	0	0	0	
5	0	0	0	0	570	1	0	0	0	0	
6	0	0	0	0	562	1	0	0	0	0	
7	0	0	0	0	556	2	0	0	0	0	
8	0	0	0	0	550	1	0	0	0	0	
9	0	0	0	0	542	1	0	0	0	0	
10	0	0	0	0	537	1	0	0	0	0	
11	0	0	0	0	532	1	0	0	0	0	
12	0	0	0	0	529	1	0	0	0	0	
13	0	0	0	0	527	1	0	0	0	0	
14	0	0	0	0	525	1	0	0	0	0	
15	0	0	0	0	524	2	0	0	0	0	
0	0	0	0	0	523	1	0	0	0	0	
1	0	0	0	0	519	1	0	0	0	0	
2	0	0	0	0	519	1	0	0	0	0	
3	0	0	0	0	519	1	0	0	0	0	
4	0	0	0	0	517	1	0	0	0	0	
5	0	0	0	0	516	1	0	0	0	0	
6	0	0	0	0	516	1	0	0	0	0	
7	0	0	0	0	515	1	0	0	0	0	
8	0	0	0	0	516	1	0	0	0	0	
9	0	0	0	0	516	1	0	0	0	0	
10	0	0	0	0	516	1	0	0	0	0	
11	0	0	0	0	515	1	0	0	0	0	
12	0	0	0	0	514	1	0	0	0	0	
13	0	0	0	0	513	1	0	0	0	0	
14	0	0	0	0	512	1	0	0	0	0	
15	0	0	0	0	511	1	0	0	0	0	
0	0	0	0	0	511	1	0	0	0	0	
1	0	0	0	0	511	1	0	0	0	0	
2	0	0	0	0	511	1	0	0	0	0	
3	0	0	0	0	511	1	0	0	0	0	
4	0	0	0	0	510	1	0	0	0	0	
5	0	0	0	0	509	0	0	0	0	0	
6	0	0	0	0	508	1	0	0	0	0	
7	0	0	0	0	508	2	0	0	0	0	
8	0	0	0	0	507	1	0	0	0	0	
9	0	0	0	0	507	1	0	0	0	0	
10	0	0	0	0	507	1	0	0	0	0	
11	0	0	0	0	507	1	0	0	0	0	
12	0	0	0	0	507	1	0	0	0	0	
13	0	0	0	0	508	0	0	0	0	0	
14	0	0	0	0	508	1	0	0	0	0	
15	0	0	0	0	507	2	0	0	0	0	
0	0	0	0	0	507	1	0	0	0	0	
1	0	0	0	0	506	1	0	0	0	0	
2	0	0	0	0	505	1	0	0	0	0	
3	0	0	0	0	505	1	0	0	0	0	
4	0	0	0	0	505	1	0	0	0	0	
5	0	0	0	0	505	0	0	0	0	0	
6	0	0	0	0	505	1	0	0	0	0	
7	0	0	0	0	506	2	0	0	0	0	
8	0	0	0	0	505	1	0	0	0	0	
9	0	0	0	0	505	1	0	0	0	0	
10	0	0	0	0	504	1	0	0	0	0	
11	0	0	0	0	505	1	0	0	0	0	
12	0	0	0	0	506	0	0	0	0	0	
13	0	0	0	0	507	1	0	0	0	0	
14	0	0	0	0	508	1	0	0	0	0	
15	0	0	0	0	508	2	0	0	0	0	
0	0	0	0	0	508	1	0	0	0	0	
1	0	0	0	0	506	1	0	0	0	0	
2	0	0	0	0	506	1	0	0	0	0	
3	0	0	0	0	507	1	0	0	0	0	
4	0	0	0	0	507	0	0	0	0	0	
5	0	0	0	0	506	1	0	0	0	0	
6	0	0	0	0	505	1	0	0	0	0	
7	0	0	0	0	504	2	0	0	0	0	
8	0	0	0	0	504	1	0	0	0	0	
9	0	0	0	0	502	1	0	0	0	0	
10	0	0	0	0	503	1	0	0	0	0	
11	0	0	0	0	504	1	0	0	0	0	
12	0	0	0	0	504	0	0	0	0	0	
13	0	0	0	0	504	1	0	0	0	0	
14	0	0	0	0	504	1	0	0	0	0	
15	0	0	0	0	504	2	0	0	0	0	
0	0	0	0	0	504	1	0	0	0	0	
1	0	0	0	0	503	1	0	0	0	0	
2	0	0	0	0	503	0	0	0	0	0	
3	0	0	0	0	502	1	0	0	0	0	
4	0	0	0	0	503	1	0	0	0	0	
5	0	0	0	0	503	1	0	0	0	0	
6	0	0	0	0	503	1	0	0	0	0	
7	0	0	0	0	504	2	0	0	0	0	
8	0	0	0	0	504	1	0	0	0	0	
9	0	0	0	0	504	1	0	0	0	0	
10	0	0	0	0	504	0	0	0	0	0	
11	0	0	0	0	504	1	0	0	0	0	
12	0	0	0	0	504	1	0	0	0	0	
13	0	0	0	0	503	1	0	0	0	0	
14	0	0	0	0	503	1	0	0	0	0	
15	0	0	0	0	503	2	0	0	0	0	
0	0	0	0	0	503	1	0	0	0	0	
1	0	0	0	0	503	1	0	0	0	0	
2	0	0	0	0	503	0	0	0	0	0	
3	0	0	0	0	503	1	0	0	0	0	
4	0	0	0	0	502	1	0	0	0	0	
5	0	0	0	0	503	1	0	0	0	0	
6	0	0	0	0	504	1	0	0	0	0	
7	0	0	0	0	503	2	0	0	0	0	
8	0	0	0	0	503	1	0	0	0	0	
9	0	0	0	0	502	0	0	0	0	0	
10	0	0	0	0	501	1	0	0	0	0	
11	0	0	0	0	501	1	0	0	0	0	
12	0	0	0	0	502	1	0	0	0	0	
13	0	0	0	0	503	1	0	0	0	0	
14	0	0	0	0	503	1	0	0	0	0	
15	0	0	0	0	504	2	0	0	0	0	
0	0	0	0	0	502	1	0	0	0	0	
1	0	0	0	0	502	0	0	0	0	0	
2	0	0	0	0	501	1	0	0	0	0	
3	0	0	0	0	501	1	0	0	0	0	
4	0	0	0	0	502	1	0	0	0	0	
5	0	0	0	0	501	1	0	0	0	0	
6	0	0	0	0	501	1	0	0	0	0	
7	0	0	0	0	501	2	0	0	0	0	
8	0	0	0	0	500	1	0	0	0	0	
9	0	0	0	0	500	0	0	0	0	0	
10	0	0	0	0	499	1	0	0	0	0	
11	0	0	0	0	500	1	0	0	0	0	
12	0	0	0	0	500	1	0	0	0	0	
13	0	0	0	0	500	1	0	0	0	0	
14	0	0	0	0	501	1	0	0	0	0	
15	0	0	0	0	500	1	0	0	0	0	
0	0	0	0	0	501	1	0	0	0	0	
1	0	0	0	0	502	1	0	0	0	0	
2	0	0	0	0	501	1	0	0	0	0	
3	0	0	0	0	500	1	0	0	0	0	
4	0	0	0	0	500	1	0	0	0	0	
5	0	0	0	0	499	1	0	0	0	0	
6	0	0	0	0	499	1	0	0	0	0	
7	0	0	0	0	499	1	0	0	0	0	
8	0	0	0	0	500	1	0	0	0	0	
9	0	0	0	0	500	1	0	0	0	0	
10	0	0	0	0	499	1	0	0	0	0	
11	0	0	0	0	499	1	0	0	0	0	
12	0	0	0	0	499	1	0	0	0	0	
13	0	0	0	0	500	1	0	0	0	0	
14	0	0	0	0	501	1	0	0	0	0	
15	0	0	0	0	500	1	0	0	0	0	
0	0	0	0	0	499	1	0	0	0	0	
1	0	0	0	0	498	1	0	0	0	0	
2	0	0	0	0	497	1	0	0	0	0	
3	0	0	0	0	498	1	0	0	0	0	
4	0	0	0	0	498	1	0	0	0	0	
5	0	0	0	0	498	1	0	0	0	0	
6	0	0	0	0	499	1	0	0	0	0	
7	0	0	0	0	499	2	0	0	0	0	
8	0	0	0	0	498	1	0	0	0	0	
9	0	0	0	0	498	0	0	0	0	0	
10	0	0	0	0	497	1	0	0	0	0	
11	0	0	0	0	498	1	0	0	0	0	
12	0	0	0	0	499	1	0	0	0	0	
13	0	0	0	0	499	1	0	0	0	0	
14	0	0	0	0	500	1	0	0	0	0	
15	0	0	0	0	500	2	0	0	0	0	
0	0	0	0	0	499	1	0	0	0	0	
1	0	0	0	0	499	0	0	0	0	0	
2	0	0	0	0	498	1	0	0	0	0	
3	0	0	0	0	498	1	0	0	0	0	
4	0	0	0	0	499	1	0	0	0	0	
5	0	0	0	0	498	1	0	0	0	0	
6	0	0	0	0	498	1	0	0	0	0	
7	0	0	0	0	498	2	0	0	0	0	
8	0	0	0	0	497	1	0	0	0	0	
9	0	0	0	0	498	1	0	0	0	0	
10	0	0	0	0	498	0	0	0	0	0	
11	0	0	0	0	497	1	0	0	0	0	
12	0	0	0	0	497	1	0	0	0	0	
13	0	0	0	0	497	1	0	0	0	0	
14	0	0	0	0	496	1	0	0	0	0	
15	0	0	0	0	498	2	0	0	0	0	
0	0	0	0	0	498	1	0	0	0	0	
1	0	0	0	0	497	1	0	0	0	0	
2	0	0	0	0	496	0	0	0	0	0	
3	0	0	0	0	496	1	0	0	0	0	
4	0	0	0	0	495	1	0	0	0	0	
5	0	0	0	0	496	1	0	0	0	0	
6	0	0	0	0	496	1	0	0	0	0	
7	0	0	0	0	496	2	0	0	0	0	
8	0	0	0	0	497	1	0	0	0	0	
9	0	0	0	0	498	1	0	0	0	0	
10	0	0	0	0	499	0	0	0	0	0	
11	0	0	0	0	500	1	0	0	0	0	
12	0	0	0	0	501	1	0	0	0	0	
13	0	0	0	0	502	1	0	0	0	0	
14	0	0	0	0	503	1	0	0	0	0	
15	0	0	0	0	504	2	0	0	0	0	
0	0	0	0	0	504	1	0	0	0	0	
1	0	0	0	0	503	1	0	0	0	0	
2	0	0	0	0	502	1	0	0	0	0	
3	0	0	0	0	501	1	0	0	0	0	
4	0	0	0	0	500	0	0	0	0	0	
5	0	0	0	0	500	1	0	0	0	0	
6	0	0	0	0	499	1	0	0	0	0	
7	0	0	0	0	498	2	0	0	0	0	
8	0	0	0	0	497	1	0	0	0	0	
9	0	0	0	0	497	1	0	0	0	0	
10	0	0	0	0	498	1	0	0	0	0	
11	0	0	0	0	498	1	0	0	0	0	
12	0	0	0	0	500	0	0	0	0	0	
13	0	0	0	0	501	1	0	0	0	0	
14	0	0	0	0	502	1	0	0	0	0	
15	0	0	0	0	502	2	0	0	0	0	
0	0	0	0	0	504	1	0	0	0	0	
1	0	0	0	0	505	1	0	0	0	0	
2	0	0	0	0	506	1	0	0	0	0	
3	0	0	0	0	507	1	0	0	0	0	
4	0	0	0	0	508	1	0	0	0	0	
5	0	0	0	0	508	0	0	0	0	0	
6	0	0	0	0	511	1	0	0	0	0	
7	0	0	0	0	512	2	0	0	0	0	
8	0	0	0	0	513	1	0	0	0	0	
9	0	0	0	0	513	1	0	0	0	0	
10	0	0	0	0	514	1	0	0	0	0	
11	0	0	0	0	515	1	0	0	0	0	
12	0	0	0	0	516	1	0	0	0	0	
13	0	0	0	0	517	1	0	0	0	0	
14	0	0	0	0	518	1	0	0	0	0	
15	0	0	0	0	518	2	0	0	0	0	
0	0	0	0	0	519	1	0	0	0	0	
1	0	0	0	0	518	1	0	0	0	0	
2	0	0	0	0	518	1	0	0	0	0	
3	0	0	0	0	519	1	0	0	0	0	
4	0	0	0	0	520	1	0	0	0	0	
5	0	0	0	0	521	1	0	0	0	0	
6	0	0	0	0	522	1	0	0	0	0	
7	0	0	0	0	524	2	0	0	0	0	
8	0	0	0	0	524	1	0	0	0	0	
9	0	0	0	0	525	1	0	0	0	0	
10	0	0	0	0	525	1	0	0	0	0	
11	0	0	0	0	525	1	0	0	0	0	
12	0	0	0	0	525	1	0	0	0	0	
13	0	0	0	0	525	1	0	0	0	0	
14	0	0	0	0	526	1	0	0	0	0	
15	0	0	0	0	527	1	0	0	0	0	
0	0	0	0	0	529	1	0	0	0	0	
1	0	0	0	0	530	1	0	0	0	0	
2	0	0	0	0	531	1	0	0	0	0	
3	0	0	0	0	532	1	0	0	0	0	
4	0	0	0	0	533	1	0	0	0	0	
5	0	0	0	0	532	1	0	0	0	0	
6	0	0	0	0	532	1	0	0	0	0	
7	0	0	0	0	532	1	0	0	0	0	
8	0	0	0	0	533	1	0	0	0	0	
9	0	0	0	0	535	1	0	0	0	0	
10	0	0	0	0	536	1	0	0	0	0	
11	0	0	0	0	536	1	0	0	0	0	
12	0	0	0	0	537	1	0	0	0	0	
13	0	0	0	0	538	1	0	0	0	0	
14	0	0	0	0	539	1	0	0	0	0	
15	0	0	0	0	539	1	0	0	0	0	
0	0	0	0	0	539	1	0	0	0	0	
1	0	0	0	0	539	1	0	0	0	0	
2	0	0	0	0	539	1	0	0	0	0	
3	0	0	0	0	539	1	0	0	0	0	
4	0	0	0	0	538	1	0	0	0	0	
5	0	0	0	0	539	1	0	0	0	0	
6	0	0	0	0	539	1	0	0	0	0	
7	0	0	0	0	540	2	0	0	0	0	
8	0	0	0	0	540	1	0	0	0	0	
9	0	0	0	0	540	1	0	0	0	0	
10	0	0	0	0	541	1	0	0	0	0	
11	0	0	0	0	541	1	0	0	0	0	
12	0	0	0	0	540	1	0	0	0	0	
13	0	0	0	0	541	1	0	0	0	0	
14	0	0	0	0	542	1	0	0	0	0	
15	0	0	0	0	543	2	0	0	0	0	
0	0	0	0	0	544	1	0	0	0	0	
1	0	0	0	0	544	1	0	0	0	0	
2	0	0	0	0	544	1	0	0	0	0	
3	0	0	0	0	543	1	0	0	0	0	
4	0	0	0	0	542	1	0	0	0	0	
5	0	0	0	0	540	1	0	0	0	0	
6	0	0	0	0	539	1	0	0	0	0	
7	0	0	0	0	537	2	0	0	0	0	
8	0	0	0	0	536	1	0	0	0	0	
9	0	0	0	0	535	1	0	0	0	0	
10	0	0	0	0	536	1	0	0	0	0	
11	0	0	0	0	536	1	0	0	0	0	
12	0	0	0	0	537	0	0	0	0	0	
13	0	0	0	0	537	1	0	0	0	0	
14	0	0	0	0	539	1	0	0	0	0	
15	0	0	0	0	539	2	0	0	0	0	
0	0	0	0	0	539	1	0	0	0	0	
1	0	0	0	0	540	1	0	0	0	0	
2	0	0	0	0	541	1	0	0	0	0	
3	0	0	0	0	540	1	0	0	0	0	
4	0	0	0	0	540	0	0	0	0	0	
5	0	0	0	0	538	1	0	0	0	0	
6	0	0	0	0	538	1	0	0	0	0	
7	0	0	0	0	538	2	0	0	0	0	
8	0	0	0	0	538	1	0	0	0	0	
9	0	0	0	0	538	1	0	0	0	0	
10	0	0	0	0	539	1	0	0	0	0	
11	0	0	0	0	538	1	0	0	0	0	
12	0	0	0	0	537	1	0	0	0	0	
13	0	0	0	0	537	1	0	0	0	0	
14	0	0	0	0	535	1	0	0	0	0	
15	0	0	0	0	533	2	0	0	0	0	
0	0	0	0	0	533	1	0	0	0	0	
1	0	0	0	0	531	1	0	0	0	0	
2	0	0	0	0	531	1	0	0	0	0	
3	0	0	0	0	530	1	0	0	0	0	
4	0	0	0	0	529	1	0	0	0	0	
5	0	0	0	0	529	1	0	0	0	0	
6	0	0	0	0	528	1	0	0	0	0	
7	0	0	0	0	528	2	0	0	0	0	
8	0	0	0	0	527	1	0	0	0	0	
9	0	0	0	0	527	1	0	0	0	0	
10	0	0	0	0	527	1	0	0	0	0	
11	0	0	0	0	528	1	0	0	0	0	
12	0	0	0	0	529	1	0	0	0	0	
13	0	0	0	0	529	1	0	0	0	0	
14	0	0	0	0	528	1	0	0	0	0	
15	0	0	0	0	527	2	0	0	0	0	
0	0	0	0	0	528	1	0	0	0	0	
1	0	0	0	0	528	0	0	0	0	0	
2	0	0	0	0	528	1	0	0	0	0	
3	0	0	0	0	529	1	0	0	0	0	
4	0	0	0	0	531	1	0	0	0	0	
5	0	0	0	0	531	1	0	0	0	0	
6	0	0	0	0	531	1	0	0	0	0	
7	0	0	0	0	532	2	0	0	0	0	
8	0	0	0	0	531	1	0	0	0	0	
9	0	0	0	0	531	0	0	0	0	0	
10	0	0	0	0	530	1	0	0	0	0	
11	0	0	0	0	529	1	0	0	0	0	
12	0	0	0	0	527	1	0	0	0	0	
13	0	0	0	0	526	1	0	0	0	0	
14	0	0	0	0	525	1	0	0	0	0	
15	0	0	0	0	525	2	0	0	0	0	
0	0	0	0	0	524	1	0	0	0	0	
1	0	0	0	0	524	0	0	0	0	0	
2	0	0	0	0	524	1	0	0	0	0	
3	0	0	0	0	523	1	0	0	0	0	
4	0	0	0	0	524	1	0	0	0	0	
5	0	0	0	0	524	1	0	0	0	0	
6	0	0	0	0	524	1	0	0	0	0	
7	0	0	0	0	524	1	0	0	0	0	
8	0	0	0	0	524	1	0	0	0	0	
9	0	0	0	0	523	1	0	0	0	0	
10	0	0	0	0	523	1	0	0	0	0	
11	0	0	0	0	523	1	0	0	0	0	
12	0	0	0	0	523	1	0	0	0	0	
13	0	0	0	0	522	1	0	0	0	0	
14	0	0	0	0	522	1	0	0	0	0	
15	0	0	0	0	522	1	0	0	0	0	
0	0	0	0	0	522	1	0	0	0	0	
1	0	0	0	0	522	1	0	0	0	0	
2	0	0	0	0	523	1	0	0	0	0	
3	0	0	0	0	523	1	0	0	0	0	
4	0	0	0	0	523	1	0	0	0	0	
5	0	0	0	0	523	1	0	0	0	0	
6	0	0	0	0	522	1	0	0	0	0	
7	0	0	0	0	522	1	0	0	0	0	
8	0	0	0	0	522	1	0	0	0	0	
9	0	0	0	0	521	1	0	0	0	0	
10	0	0	0	0	521	1	0	0	0	0	
11	0	0	0	0	522	1	0	0	0	0	
12	0	0	0	0	523	1	0	0	0	0	
13	0	0	0	0	524	1	0	0	0	0	
14	0	0	0	0	524	1	0	0	0	0	
15	0	0	0	0	524	2	0	0	0	0	
0	0	0	0	0	523	1	0	0	0	0	
1	0	0	0	0	523	0	0	0	0	0	
2	0	0	0	0	523	1	0	0	0	0	
3	0	0	0	0	523	1	0	0	0	0	
4	0	0	0	0	522	1	0	0	0	0	
5	0	0	0	0	523	1	0	0	0	0	
6	0	0	0	0	522	1	0	0	0	0	
7	0	0	0	0	521	2	0	0	0	0	
8	0	0	0	0	521	1	0	0	0	0	
9	0	0	0	0	521	0	0	0	0	0	
10	0	0	0	0	521	1	0	0	0	0	
11	0	0	0	0	520	1	0	0	0	0	
12	0	0	0	0	520	1	0	0	0	0	
13	0	0	0	0	520	1	0	0	0	0	
14	0	0	0	0	521	1	0	0	0	0	
15	0	0	0	0	521	2	0	0	0	0	
0	0	0	0	0	521	1	0	0	0	0	
1	0	0	0	0	521	0	0	0	0	0	
2	0	0	0	0	521	1	0	0	0	0	
3	0	0	0	0	521	1	0	0	0	0	
4	0	0	0	0	521	1	0	0	0	0	
5	0	0	0	0	521	1	0	0	0	0	
6	0	0	0	0	521	1	0	0	0	0	
7	0	0	0	0	520	2	0	0	0	0	
8	0	0	0	0	521	1	0	0	0	0	
9	0	0	0	0	519	1	0	0	0	0	
10	0	0	0	0	520	1	0	0	0	0	
11	0	0	0	0	520	1	0	0	0	0	
12	0	0	0	0	521	1	0	0	0	0	
13	0	0	0	0	520	1	0	0	0	0	
14	0	0	0	0	519	1	0	0	0	0	
15	0	0	0	0	519	2	0	0	0	0	
0	0	0	0	0	519	1	0	0	0	0	
1	0	0	0	0	519	1	0	0	0	0	
2	0	0	0	0	519	0	0	0	0	0	
3	0	0	0	0	519	1	0	0	0	0	
4	0	0	0	0	520	1	0	0	0	0	
5	0	0	0	0	520	1	0	0	0	0	
6	0	0	0	0	520	1	0	0	0	0	
7	0	0	0	0	519	2	0	0	0	0	
8	0	0	0	0	519	1	0	0	0	0	
9	0	0	0	0	520	1	0	0	0	0	
10	0	0	0	0	520	1	0	0	0	0	
11	0	0	0	0	519	1	0	0	0	0	
12	0	0	0	0	517	0	0	0	0	0	
13	0	0	0	0	517	1	0	0	0	0	
14	0	0	0	0	516	1	0	0	0	0	
15	0	0	0	0	516	2	0	0	0	0	
0	0	0	0	0	516	1	0	0	0	0	
1	0	0	0	0	517	1	0	0	0	0	
2	0	0	0	0	516	1	0	0	0	0	
3	0	0	0	0	517	1	0	0	0	0	
4	0	0	0	0	517	0	0	0	0	0	
5	0	0	0	0	519	1	0	0	0	0	
6	0	0	0	0	519	1	0	0	0	0	
7	0	0	0	0	521	2	0	0	0	0	
8	0	0	0	0	521	1	0	0	0	0	
9	0	0	0	0	521	1	0	0	0	0	
10	0	0	0	0	521	1	0	0	0	0	
11	0	0	0	0	522	1	0	0	0	0	
12	0	0	0	0	522	0	0	0	0	0	
13	0	0	0	0	523	1	0	0	0	0	
14	0	0	0	0	523	1	0	0	0	0	
15	0	0	0	0	523	2	0	0	0	0	
0	0	0	0	0	522	1	0	0	0	0	
1	0	0	0	0	521	1	0	0	0	0	
2	0	0	0	0	520	1	0	0	0	0	
3	0	0	0	0	519	1	0	0	0	0	
4	0	0	0	0	519	1	0	0	0	0	
5	0	0	0	0	518	1	0	0	0	0	
6	0	0	0	0	517	1	0	0	0	0	
7	0	0	0	0	518	2	0	0	0	0	
8	0	0	0	0	518	1	0	0	0	0	
9	0	0	0	0	518	1	0	0	0	0	
10	0	0	0	0	518	1	0	0	0	0	
11	0	0	0	0	517	1	0	0	0	0	
12	0	0	0	0	516	1	0	0	0	0	
13	0	0	0	0	516	0	0	0	0	0	
14	0	0	0	0	516	1	0	0	0	0	
15	0	0	0	0	516	2	0	0	0	0	
0	0	0	0	0	517	1	0	0	0	0	
1	0	0	0	0	517	1	0	0	0	0	
2	0	0	0	0	517	1	0	0	0	0	
3	0	0	0	0	516	1	0	0	0	0	
4	0	0	0	0	517	1	0	0	0	0	
5	0	0	0	0	519	1	0	0	0	0	
6	0	0	0	0	519	1	0	0	0	0	
7	0	0	0	0	521	1	0	0	0	0	
8	0	0	0	0	522	1	0	0	0	0	
9	0	0	0	0	523	1	0	0	0	0	
10	0	0	0	0	523	1	0	0	0	0	
11	0	0	0	0	524	1	0	0	0	0	
12	0	0	0	0	523	1	0	0	0	0	
13	0	0	0	0	522	1	0	0	0	0	
14	0	0	0	0	521	1	0	0	0	0	
15	0	0	0	0	520	1	0	0	0	0	
0	0	0	0	0	520	1	0	0	0	0	
1	0	0	0	0	519	1	0	0	0	0	
2	0	0	0	0	520	1	0	0	0	0	
3	0	0	0	0	519	1	0	0	0	0	
4	0	0	0	0	518	1	0	0	0	0	
5	0	0	0	0	517	1	0	0	0	0	
6	0	0	0	0	516	1	0	0	0	0	
7	0	0	0	0	516	1	0	0	0	0	
8	0	0	0	0	516	1	0	0	0	0	
9	0	0	0	0	515	1	0	0	0	0	
10	0	0	0	0	513	1	0	0	0	0	
11	0	0	0	0	513	1	0	0	0	0	
12	0	0	0	0	513	1	0	0	0	0	
13	0	0	0	0	513	0	0	0	0	0	
14	0	0	0	0	512	1	0	0	0	0	
15	0	0	0	0	512	2	0	0	0	0	
0	0	0	0	0	512	1	0	0	0	0	
1	0	0	0	0	511	1	0	0	0	0	
2	0	0	0	0	511	1	0	0	0	0	
3	0	0	0	0	511	1	0	0	0	0	
4	0	0	0	0	512	1	0	0	0	0	
5	0	0	0	0	512	0	0	0	0	0	
6	0	0	0	0	513	1	0	0	0	0	
7	0	0	0	0	514	2	0	0	0	0	
8	0	0	0	0	515	1	0	0	0	0	
9	0	0	0	0	515	1	0	0	0	0	
10	0	0	0	0	515	1	0	0	0	0	
11	0	0	0	0	516	1	0	0	0	0	
12	0	0	0	0	516	1	0	0	0	0	
13	0	0	0	0	516	0	0	0	0	0	
14	0	0	0	0	516	1	0	0	0	0	
15	0	0	0	0	516	2	0	0	0	0	
0	0	0	0	0	517	1	0	0	0	0	
1	0	0	0	0	517	1	0	0	0	0	
2	0	0	0	0	518	1	0	0	0	0	
3	0	0	0	0	518	1	0	0	0	0	
4	0	0	0	0	518	0	0	0	0	0	
5	0	0	0	0	517	1	0	0	0	0	
6	0	0	0	0	517	1	0	0	0	0	
7	0	0	0	0	517	2	0	0	0	0	
8	0	0	0	0	517	1	0	0	0	0	
9	0	0	0	0	518	1	0	0	0	0	
10	0	0	0	0	519	1	0	0	0	0	
11	0	0	0	0	519	1	0	0	0	0	
12	0	0	0	0	518	0	0	0	0	0	
13	0	0	0	0	518	1	0	0	0	0	
14	0	0	0	0	518	1	0	0	0	0	
15	0	0	0	0	517	2	0	0	0	0	
0	0	0	0	0	517	1	0	0	0	0	
1	0	0	0	0	516	1	0	0	0	0	
2	0	0	0	0	516	1	0	0	0	0	
3	0	0	0	0	516	1	0	0	0	0	
4	0	0	0	0	516	0	0	0	0	0	
5	0	0	0	0	516	1	0	0	0	0	
6	0	0	0	0	515	1	0	0	0	0	
7	0	0	0	0	515	2	0	0	0	0	
8	0	0	0	0	514	1	0	0	0	0	
9	0	0	0	0	513	1	0	0	0	0	
10	0	0	0	0	513	1	0	0	0	0	
11	0	0	0	0	513	1	0	0	0	0	
12	0	0	0	0	514	1	0	0	0	0	
13	0	0	0	0	514	1	0	0	0	0	
14	0	0	0	0	515	1	0	0	0	0	
15	0	0	0	0	515	2	0	0	0	0	
0	0	0	0	0	515	1	0	0	0	0	
1	0	0	0	0	516	1	0	0	0	0	
2	0	0	0	0	515	0	0	0	0	0	
3	0	0	0	0	514	1	0	0	0	0	
4	0	0	0	0	513	1	0	0	0	0	
5	0	0	0	0	513	1	0	0	0	0	
6	0	0	0	0	513	1	0	0	0	0	
7	0	0	0	0	512	2	0	0	0	0	
8	0	0	0	0	511	1	0	0	0	0	
9	0	0	0	0	510	1	0	0	0	0	
10	0	0	0	0	509	0	0	0	0	0	
11	0	0	0	0	508	1	0	0	0	0	
12	0	0	0	0	507	1	0	0	0	0	
13	0	0	0	0	506	1	0	0	0	0	
14	0	0	0	0	505	1	0	0	0	0	
15	0	0	0	0	505	2	0	0	0	0	
0	0	0	0	0	504	1	0	0	0	0	
1	0	0	0	0	503	0	0	0	0	0	
2	0	0	0	0	503	1	0	0	0	0	
3	0	0	0	0	503	1	0	0	0	0	
4	0	0	0	0	503	1	0	0	0	0	
5	0	0	0	0	502	1	0	0	0	0	
6	0	0	0	0	499	1	0	0	0	0	
7	0	0	0	0	497	2	0	0	0	0	
8	0	0	0	0	495	1	0	0	0	0	
9	0	0	0	0	493	0	0	0	0	0	
10	0	0	0	0	493	1	0	0	0	0	
11	0	0	0	0	493	1	0	0	0	0	
12	0	0	0	0	493	1	0	0	0	0	
13	0	0	0	0	494	1	0	0	0	0	
14	0	0	0	0	494	1	0	0	0	0	
15	0	0	0	0	494	2	0	0	0	0	
0	0	0	0	0	495	1	0	0	0	0	
1	0	0	0	0	496	0	0	0	0	0	
2	0	0	0	0	497	1	0	0	0	0	
3	0	0	0	0	497	1	0	0	0	0	
4	0	0	0	0	498	1	0	0	0	0	
5	0	0	0	0	499	1	0	0	0	0	
6	0	0	0	0	500	1	0	0	0	0	
7	0	0	0	0	500	1	0	0	0	0	
8	0	0	0	0	502	1	0	0	0	0	
9	0	0	0	0	503	1	0	0	0	0	
10	0	0	0	0	503	1	0	0	0	0	
11	0	0	0	0	503	1	0	0	0	0	
12	0	0	0	0	503	1	0	0	0	0	
13	0	0	0	0	503	1	0	0	0	0	
14	0	0	0	0	503	1	0	0	0	0	
15	0	0	0	0	504	1	0	0	0	0	
0	0	0	0	0	504	1	0	0	0	0	
1	0	0	0	0	504	1	0	0	0	0	
2	0	0	0	0	504	1	0	0	0	0	
3	0	0	0	0	505	1	0	0	0	0	
4	0	0	0	0	505	1	0	0	0	0	
5	0	0	0	0	507	1	0	0	0	0	
6	0	0	0	0	508	1	0	0	0	0	
7	0	0	0	0	509	1	0	0	0	0	
8	0	0	0	0	510	1	0	0	0	0	
9	0	0	0	0	511	0	0	0	0	0	
10	0	0	0	0	512	1	0	0	0	0	
11	0	0	0	0	514	1	0	0	0	0	
12	0	0	0	0	515	1	0	0	0	0	
13	0	0	0	0	516	1	0	0	0	0	
14	0	0	0	0	518	1	0	0	0	0	
15	0	0	0	0	519	2	0	0	0	0	
0	0	0	0	0	522	1	0	0	0	0	
1	0	0	0	0	524	0	0	0	0	0	
2	0	0	0	0	526	1	0	0	0	0	
3	0	0	0	0	526	1	0	0	0	0	
4	0	0	0	0	526	1	0	0	0	0	
5	0	0	0	0	527	1	0	0	0	0	
6	0	0	0	0	528	1	0	0	0	0	
7	0	0	0	0	528	2	0	0	0	0	
8	0	0	0	0	529	1	0	0	0	0	
9	0	0	0	0	529	0	0	0	0	0	
10	0	0	0	0	530	1	0	0	0	0	
11	0	0	0	0	531	1	0	0	0	0	
12	0	0	0	0	531	1	0	0	0	0	
13	0	0	0	0	530	1	0	0	0	0	
14	0	0	0	0	530	1	0	0	0	0	
15	0	0	0	0	529	2	0	0	0	0	
0	0	0	0	0	530	1	0	0	0	0	
1	0	0	0	0	530	1	0	0	0	0	
2	0	0	0	0	529	0	0	0	0	0	
3	0	0	0	0	528	1	0	0	0	0	
4	0	0	0	0	526	1	0	0	0	0	
5	0	0	0	0	526	1	0	0	0	0	
6	0	0	0	0	526	1	0	0	0	0	
7	0	0	0	0	526	2	0	0	0	0	
8	0	0	0	0	526	1	0	0	0	0	
9	0	0	0	0	527	1	0	0	0	0	
10	0	0	0	0	527	0	0	0	0	0	
11	0	0	0	0	527	1	0	0	0	0	
12	0	0	0	0	527	1	0	0	0	0	
13	0	0	0	0	527	1	0	0	0	0	
14	0	0	0	0	527	1	0	0	0	0	
15	0	0	0	0	527	2	0	0	0	0	
0	0	0	0	0	527	1	0	0	0	0	
1	0	0	0	0	527	1	0	0	0	0	
2	0	0	0	0	526	1	0	0	0	0	
3	0	0	0	0	525	1	0	0	0	0	
4	0	0	0	0	524	0	0	0	0	0	
5	0	0	0	0	524	1	0	0	0	0	
6	0	0	0	0	524	1	0	0	0	0	
7	0	0	0	0	524	2	0	0	0	0	
8	0	0	0	0	524	1	0	0	0	0	
9	0	0	0	0	524	1	0	0	0	0	
10	0	0	0	0	523	1	0	0	0	0	
11	0	0	0	0	523	1	0	0	0	0	
12	0	0	0	0	524	0	0	0	0	0	
13	0	0	0	0	524	1	0	0	0	0	
14	0	0	0	0	525	1	0	0	0	0	
15	0	0	0	0	526	2	0	0	0	0	
0	0	0	0	0	527	1	0	0	0	0	
1	0	0	0	0	527	1	0	0	0	0	
2	0	0	0	0	527	1	0	0	0	0	
3	0	0	0	0	527	1	0	0	0	0	
4	0	0	0	0	526	0	0	0	0	0	
5	0	0	0	0	526	1	0	0	0	0	
6	0	0	0	0	526	1	0	0	0	0	
7	0	0	0	0	525	2	0	0	0	0	
8	0	0	0	0	525	1	0	0	0	0	
9	0	0	0	0	525	1	0	0	0	0	
10	0	0	0	0	525	1	0	0	0	0	
11	0	0	0	0	525	1	0	0	0	0	
12	0	0	0	0	526	1	0	0	0	0	
13	0	0	0	0	526	1	0	0	0	0	
14	0	0	0	0	526	1	0	0	0	0	
15	0	0	0	0	526	2	0	0	0	0	
0	0	0	0	0	527	1	0	0	0	0	
1	0	0	0	0	527	1	0	0	0	0	
2	0	0	0	0	528	1	0	0	0	0	
3	0	0	0	0	529	1	0	0	0	0	
4	0	0	0	0	531	1	0	0	0	0	
5	0	0	0	0	532	1	0	0	0	0	
6	0	0	0	0	531	1	0	0	0	0	
7	0	0	0	0	531	2	0	0	0	0	
8	0	0	0	0	530	1	0	0	0	0	
9	0	0	0	0	530	1	0	0	0	0	
10	0	0	0	0	527	1	0	0	0	0	
11	0	0	0	0	526	1	0	0	0	0	
12	0	0	0	0	524	1	0	0	0	0	
13	0	0	0	0	521	0	0	0	0	0	
14	0	0	0	0	516	1	0	0	0	0	
15	0	0	0	0	512	1	0	0	0	0	
0	0	0	0	0	506	1	0	0	0	0	
1	0	0	0	0	501	1	0	0	0	0	
2	0	0	0	0	497	1	0	0	0	0	
3	0	0	0	0	492	1	0	0	0	0	
4	0	0	0	0	485	1	0	0	0	0	
5	0	0	0	0	477	1	0	0	0	0	
6	0	0	0	0	468	1	0	0	0	0	
7	0	0	0	0	462	0	0	0	0	0	
8	0	0	0	0	454	0	0	0	0	0	
9	0	0	0	0	446	0	0	0	0	0	
10	0	0	0	0	441	0	0	0	0	0	
11	0	0	0	0	437	0	0	0	0	0	
12	0	0	0	0	431	0	0	0	0	0	
13	0	0	0	0	424	0	0	0	0	0	
14	0	0	0	0	420	0	0	0	0	0	
15	0	0	0	0	418	0	0	0	0	0	
0	0	0	0	0	415	0	0	0	0	0	
1	0	0	0	0	412	0	0	0	0	0	
2	0	0	0	0	405	0	0	0	0	0	
3	0	0	0	0	398	0	0	0	0	0	
4	0	0	0	0	392	0	0	0	0	0	
5	0	0	0	0	388	0	0	0	0	0	
6	0	0	0	0	390	0	0	0	0	0	
7	0	0	0	0	399	1	0	0	0	0	
8	0	0	0	0	414	0	0	0	0	0	
9	0	0	0	0	434	0	0	0	0	0	
10	0	0	0	0	456	0	0	0	0	0	
11	0	0	0	0	479	1	0	0	0	0	
12	0	0	0	0	501	1	0	0	0	0	
13	0	0	0	0	522	1	0	0	0	0	
14	0	0	0	0	543	1	0	0	0	0	
15	0	0	0	0	561	2	0	0	0	0	
0	0	0	0	0	578	1	0	0	0	0	
1	0	0	0	0	592	1	0	0	0	0	
2	0	0	0	0	603	1	0	0	0	0	
3	0	0	0	0	611	1	0	0	0	0	
4	0	0	0	0	618	1	0	0	0	0	
5	0	0	0	0	624	1	0	0	0	0	
6	0	0	0	0	628	2	0	0	0	0	
7	0	0	0	0	632	3	0	0	0	0	
8	0	0	0	0	635	2	0	0	0	0	
9	0	0	0	0	637	2	0	0	0	0	
10	0	0	0	0	638	2	0	0	0	0	
11	0	0	0	0	638	1	0	0	0	0	
12	0	0	0	0	638	0	0	0	0	0	
13	0	0	0	0	636	2	0	0	0	0	
14	0	0	0	0	634	2	0	0	0	0	
15	0	0	0	0	630	3	0	0	0	0	
0	0	0	0	0	625	1	0	0	0	0	
1	0	0	0	0	623	1	0	0	0	0	
2	0	0	0	0	618	1	0	0	0	0	
3	0	0	0	0	613	1	0	0	0	0	
4	0	0	0	0	608	0	0	0	0	0	
5	0	0	0	0	601	1	0	0	0	0	
6	0	0	0	0	595	1	0	0	0	0	
7	0	0	0	0	590	2	0	0	0	0	
8	0	0	0	0	584	1	0	0	0	0	
9	0	0	0	0	578	1	0	0	0	0	
10	0	0	0	0	572	1	0	0	0	0	
11	0	0	0	0	564	1	0	0	0	0	
12	0	0	0	0	557	0	0	0	0	0	
13	0	0	0	0	550	1	0	0	0	0	
14	0	0	0	0	545	1	0	0	0	0	
15	0	0	0	0	539	2	0	0	0	0	
0	0	0	0	0	534	1	0	0	0	0	
1	0	0	0	0	529	1	0	0	0	0	
2	0	0	0	0	525	0	0	0	0	0	
3	0	0	0	0	523	1	0	0	0	0	
4	0	0	0	0	521	1	0	0	0	0	
5	0	0	0	0	520	1	0	0	0	0	
6	0	0	0	0	519	1	0	0	0	0	
7	0	0	0	0	517	2	0	0	0	0	
8	0	0	0	0	515	1	0	0	0	0	
9	0	0	0	0	514	1	0	0	0	0	
10	0	0	0	0	512	0	0	0	0	0	
11	0	0	0	0	512	1	0	0	0	0	
12	0	0	0	0	512	1	0	0	0	0	
13	0	0	0	0	512	1	0	0	0	0	
14	0	0	0	0	511	1	0	0	0	0	
15	0	0	0	0	510	2	0	0	0	0	
0	0	0	0	0	510	1	0	0	0	0	
1	0	0	0	0	508	1	0	0	0	0	
2	0	0	0	0	508	0	0	0	0	0	
3	0	0	0	0	507	1	0	0	0	0	
4	0	0	0	0	507	1	0	0	0	0	
5	0	0	0	0	506	1	0	0	0	0	
6	0	0	0	0	505	1	0	0	0	0	
7	0	0	0	0	504	2	0	0	0	0	
8	0	0	0	0	504	1	0	0	0	0	
9	0	0	0	0	504	0	0	0	0	0	
10	0	0	0	0	504	1	0	0	0	0	
11	0	0	0	0	504	1	0	0	0	0	
12	0	0	0	0	505	1	0	0	0	0	
13	0	0	0	0	505	1	0	0	0	0	
14	0	0	0	0	505	1	0	0	0	0	
15	0	0	0	0	505	2	0	0	0	0	
0	0	0	0	0	505	1	0	0	0	0	
1	0	0	0	0	505	0	0	0	0	0	
2	0	0	0	0	504	1	0	0	0	0	
3	0	0	0	0	504	1	0	0	0	0	
4	0	0	0	0	503	1	0	0	0	0	
5	0	0	0	0	504	1	0	0	0	0	
6	0	0	0	0	504	1	0	0	0	0	
7	0	0	0	0	503	2	0	0	0	0	
8	0	0	0	0	504	1	0	0	0	0	
9	0	0	0	0	504	0	0	0	0	0	
10	0	0	0	0	504	1	0	0	0	0	
11	0	0	0	0	504	1	0	0	0	0	
12	0	0	0	0	504	1	0	0	0	0	
13	0	0	0	0	504	1	0	0	0	0	
14	0	0	0	0	504	1	0	0	0	0	
15	0	0	0	0	503	1	0	0	0	0	
0	0	0	0	0	503	1	0	0	0	0	
1	0	0	0	0	503	1	0	0	0	0	
2	0	0	0	0	503	1	0	0	0	0	
3	0	0	0	0	503	1	0	0	0	0	
4	0	0	0	0	502	1	0	0	0	0	
5	0	0	0	0	502	1	0	0	0	0	
6	0	0	0	0	502	1	0	0	0	0	
7	0	0	0	0	501	1	0	0	0	0	
8	0	0	0	0	501	1	0	0	0	0	
9	0	0	0	0	502	1	0	0	0	0	
10	0	0	0	0	502	1	0	0	0	0	
11	0	0	0	0	502	1	0	0	0	0	
12	0	0	0	0	502	1	0	0	0	0	
13	0	0	0	0	501	1	0	0	0	0	
14	0	0	0	0	501	1	0	0	0	0	
15	0	0	0	0	501	1	0	0	0	0	
0	0	0	0	0	501	1	0	0	0	0	
1	0	0	0	0	500	1	0	0	0	0	
2	0	0	0	0	500	1	0	0	0	0	
3	0	0	0	0	500	1	0	0	0	0	
4	0	0	0	0	500	1	0	0	0	0	
5	0	0	0	0	500	1	0	0	0	0	
6	0	0	0	0	500	1	0	0	0	0	
7	0	0	0	0	500	2	0	0	0	0	
8	0	0	0	0	501	1	0	0	0	0	
9	0	0	0	0	502	0	0	0	0	0	
10	0	0	0	0	502	1	0	0	0	0	
11	0	0	0	0	502	1	0	0	0	0	
12	0	0	0	0	501	1	0	0	0	0	
13	0	0	0	0	501	1	0	0	0	0	
14	0	0	0	0	502	1	0	0	0	0	
15	0	0	0	0	502	2	0	0	0	0	
0	0	0	0	0	503	1	0	0	0	0	
1	0	0	0	0	502	0	0	0	0	0	
2	0	0	0	0	502	1	0	0	0	0	
3	0	0	0	0	502	1	0	0	0	0	
4	0	0	0	0	501	1	0	0	0	0	
5	0	0	0	0	501	1	0	0	0	0	
6	0	0	0	0	502	1	0	0	0	0	
7	0	0	0	0	502	2	0	0	0	0	
8	0	0	0	0	502	1	0	0	0	0	
9	0	0	0	0	502	1	0	0	0	0	
10	0	0	0	0	503	0	0	0	0	0	
11	0	0	0	0	503	1	0	0	0	0	
12	0	0	0	0	504	1	0	0	0	0	
13	0	0	0	0	504	1	0	0	0	0	
14	0	0	0	0	504	1	0	0	0	0	
15	0	0	0	0	504	2	0	0	0	0	
0	0	0	0	0	504	1	0	0	0	0	
1	0	0	0	0	503	1	0	0	0	0	
2	0	0	0	0	502	0	0	0	0	0	
3	0	0	0	0	503	1	0	0	0	0	
4	0	0	0	0	502	1	0	0	0	0	
5	0	0	0	0	502	1	0	0	0	0	
6	0	0	0	0	503	1	0	0	0	0	
7	0	0	0	0	503	2	0	0	0	0	
8	0	0	0	0	503	1	0	0	0	0	
9	0	0	0	0	502	1	0	0	0	0	
10	0	0	0	0	500	0	0	0	0	0	
11	0	0	0	0	500	1	0	0	0	0	
12	0	0	0	0	500	1	0	0	0	0	
13	0	0	0	0	500	1	0	0	0	0	
14	0	0	0	0	500	1	0	0	0	0	
15	0	0	0	0	500	2	0	0	0	0	
0	0	0	0	0	499	1	0	0	0	0	
1	0	0	0	0	498	1	0	0	0	0	
2	0	0	0	0	498	1	0	0	0	0	
3	0	0	0	0	499	1	0	0	0	0	
4	0	0	0	0	498	0	0	0	0	0	
5	0	0	0	0	498	1	0	0	0	0	
6	0	0	0	0	497	1	0	0	0	0	
7	0	0	0	0	496	2	0	0	0	0	
8	0	0	0	0	496	1	0	0	0	0	
9	0	0	0	0	496	1	0	0	0	0	
10	0	0	0	0	496	1	0	0	0	0	
11	0	0	0	0	496	1	0	0	0	0	
12	0	0	0	0	495	0	0	0	0	0	
13	0	0	0	0	496	1	0	0	0	0	
14	0	0	0	0	497	1	0	0	0	0	
15	0	0	0	0	497	2	0	0	0	0	
0	0	0	0	0	498	1	0	0	0	0	
1	0	0	0	0	499	1	0	0	0	0	
2	0	0	0	0	499	1	0	0	0	0	
3	0	0	0	0	499	1	0	0	0	0	
4	0	0	0	0	498	1	0	0	0	0	
5	0	0	0	0	497	0	0	0	0	0	
6	0	0	0	0	497	1	0	0	0	0	
7	0	0	0	0	497	2	0	0	0	0	
8	0	0	0	0	496	1	0	0	0	0	
9	0	0	0	0	496	1	0	0	0	0	
10	0	0	0	0	497	1	0	0	0	0	
11	0	0	0	0	496	1	0	0	0	0	
12	0	0	0	0	496	1	0	0	0	0	
13	0	0	0	0	497	1	0	0	0	0	
14	0	0	0	0	497	1	0	0	0	0	
15	0	0	0	0	497	2	0	0	0	0	
0	0	0	0	0	497	1	0	0	0	0	
1	0	0	0	0	498	1	0	0	0	0	
2	0	0	0	0	497	1	0	0	0	0	
3	0	0	0	0	497	1	0	0	0	0	
4	0	0	0	0	497	1	0	0	0	0	
5	0	0	0	0	497	0	0	0	0	0	
6	0	0	0	0	497	1	0	0	0	0	
7	0	0	0	0	497	2	0	0	0	0	
8	0	0	0	0	497	1	0	0	0	0	
9	0	0	0	0	497	1	0	0	0	0	
10	0	0	0	0	497	1	0	0	0	0	
11	0	0	0	0	497	1	0	0	0	0	
12	0	0	0	0	497	1	0	0	0	0	
13	0	0	0	0	495	1	0	0	0	0	
14	0	0	0	0	496	1	0	0	0	0	
15	0	0	0	0	496	1	0	0	0	0	
0	0	0	0	0	497	1	0	0	0	0	
1	0	0	0	0	496	1	0	0	0	0	
2	0	0	0	0	497	1	0	0	0	0	
3	0	0	0	0	498	1	0	0	0	0	
4	0	0	0	0	498	1	0	0	0	0	
5	0	0	0	0	498	1	0	0	0	0	
6	0	0	0	0	499	1	0	0	0	0	
7	0	0	0	0	499	1	0	0	0	0	
8	0	0	0	0	499	1	0	0	0	0	
9	0	0	0	0	499	1	0	0	0	0	
10	0	0	0	0	498	1	0	0	0	0	
11	0	0	0	0	497	1	0	0	0	0	
12	0	0	0	0	496	1	0	0	0	0	
13	0	0	0	0	496	1	0	0	0	0	
14	0	0	0	0	496	1	0	0	0	0	
15	0	0	0	0	497	2	0	0	0	0	
0	0	0	0	0	498	1	0	0	0	0	
1	0	0	0	0	499	1	0	0	0	0	
2	0	0	0	0	499	1	0	0	0	0	
3	0	0	0	0	500	1	0	0	0	0	
4	0	0	0	0	500	1	0	0	0	0	
5	0	0	0	0	500	0	0	0	0	0	
6	0	0	0	0	500	1	0	0	0	0	
7	0	0	0	0	499	2	0	0	0	0	
8	0	0	0	0	499	1	0	0	0	0	
9	0	0	0	0	500	1	0	0	0	0	
10	0	0	0	0	500	1	0	0	0	0	
11	0	0	0	0	501	1	0	0	0	0	
12	0	0	0	0	502	1	0	0	0	0	
13	0	0	0	0	502	0	0	0	0	0	
14	0	0	0	0	502	1	0	0	0	0	
15	0	0	0	0	503	2	0	0	0	0	
0	0	0	0	0	504	1	0	0	0	0	
1	0	0	0	0	505	1	0	0	0	0	
2	0	0	0	0	505	1	0	0	0	0	
3	0	0	0	0	506	1	0	0	0	0	
4	0	0	0	0	507	1	0	0	0	0	
5	0	0	0	0	507	1	0	0	0	0	
6	0	0	0	0	507	1	0	0	0	0	
7	0	0	0	0	507	2	0	0	0	0	
8	0	0	0	0	506	1	0	0	0	0	
9	0	0	0	0	505	1	0	0	0	0	
10	0	0	0	0	504	1	0	0	0	0	
11	0	0	0	0	504	1	0	0	0	0	
12	0	0	0	0	504	0	0	0	0	0	
13	0	0	0	0	504	1	0	0	0	0	
14	0	0	0	0	505	1	0	0	0	0	
15	0	0	0	0	507	2	0	0	0	0	
0	0	0	0	0	508	1	0	0	0	0	
1	0	0	0	0	510	1	0	0	0	0	
2	0	0	0	0	511	1	0	0	0	0	
3	0	0	0	0	512	1	0	0	0	0	
4	0	0	0	0	513	0	0	0	0	0	
5	0	0	0	0	514	1	0	0	0	0	
6	0	0	0	0	515	1	0	0	0	0	
7	0	0	0	0	515	2	0	0	0	0	
8	0	0	0	0	515	1	0	0	0	0	
9	0	0	0	0	515	1	0	0	0	0	
10	0	0	0	0	515	1	0	0	0	0	
11	0	0	0	0	515	1	0	0	0	0	
12	0	0	0	0	516	1	0	0	0	0	
13	0	0	0	0	516	1	0	0	0	0	
14	0	0	0	0	518	1	0	0	0	0	
15	0	0	0	0	519	2	0	0	0	0	
0	0	0	0	0	519	1	0	0	0	0	
1	0	0	0	0	520	1	0	0	0	0	
2	0	0	0	0	521	0	0	0	0	0	
3	0	0	0	0	522	1	0	0	0	0	
4	0	0	0	0	523	1	0	0	0	0	
5	0	0	0	0	525	1	0	0	0	0	
6	0	0	0	0	527	1	0	0	0	0	
7	0	0	0	0	527	2	0	0	0	0	
8	0	0	0	0	529	1	0	0	0	0	
9	0	0	0	0	530	1	0	0	0	0	
10	0	0	0	0	530	0	0	0	0	0	
11	0	0	0	0	531	1	0	0	0	0	
12	0	0	0	0	533	1	0	0	0	0	
13	0	0	0	0	533	1	0	0	0	0	
14	0	0	0	0	533	1	0	0	0	0	
15	0	0	0	0	535	2	0	0	0	0	
0	0	0	0	0	534	1	0	0	0	0	
1	0	0	0	0	534	0	0	0	0	0	
2	0	0	0	0	533	1	0	0	0	0	
3	0	0	0	0	534	1	0	0	0	0	
4	0	0	0	0	534	1	0	0	0	0	
5	0	0	0	0	536	1	0	0	0	0	
6	0	0	0	0	536	1	0	0	0	0	
7	0	0	0	0	537	2	0	0	0	0	
8	0	0	0	0	537	1	0	0	0	0	
9	0	0	0	0	539	0	0	0	0	0	
10	0	0	0	0	540	1	0	0	0	0	
11	0	0	0	0	541	1	0	0	0	0	
12	0	0	0	0	541	1	0	0	0	0	
13	0	0	0	0	542	1	0	0	0	0	
14	0	0	0	0	542	1	0	0	0	0	
15	0	0	0	0	541	2	0	0	0	0	
0	0	0	0	0	540	1	0	0	0	0	
1	0	0	0	0	539	0	0	0	0	0	
2	0	0	0	0	539	1	0	0	0	0	
3	0	0	0	0	537	1	0	0	0	0	
4	0	0	0	0	536	1	0	0	0	0	
5	0	0	0	0	534	1	0	0	0	0	
6	0	0	0	0	535	1	0	0	0	0	
7	0	0	0	0	536	1	0	0	0	0	
8	0	0	0	0	536	1	0	0	0	0	
9	0	0	0	0	536	1	0	0	0	0	
10	0	0	0	0	536	1	0	0	0	0	
11	0	0	0	0	537	1	0	0	0	0	
12	0	0	0	0	537	1	0	0	0	0	
13	0	0	0	0	537	1	0	0	0	0	
14	0	0	0	0	537	1	0	0	0	0	
15	0	0	0	0	538	1	0	0	0	0	
0	0	0	0	0	539	1	0	0	0	0	
1	0	0	0	0	539	1	0	0	0	0	
2	0	0	0	0	539	1	0	0	0	0	
3	0	0	0	0	537	1	0	0	0	0	
4	0	0	0	0	536	1	0	0	0	0	
5	0	0	0	0	535	1	0	0	0	0	
6	0	0	0	0	535	1	0	0	0	0	
7	0	0	0	0	535	1	0	0	0	0	
8	0	0	0	0	535	1	0	0	0	0	
9	0	0	0	0	535	1	0	0	0	0	
10	0	0	0	0	534	1	0	0	0	0	
11	0	0	0	0	533	1	0	0	0	0	
12	0	0	0	0	533	1	0	0	0	0	
13	0	0	0	0	532	1	0	0	0	0	
14	0	0	0	0	532	1	0	0	0	0	
15	0	0	0	0	532	2	0	0	0	0	
0	0	0	0	0	532	1	0	0	0	0	
1	0	0	0	0	531	0	0	0	0	0	
2	0	0	0	0	531	1	0	0	0	0	
3	0	0	0	0	533	1	0	0	0	0	
4	0	0	0	0	533	1	0	0	0	0	
5	0	0	0	0	533	1	0	0	0	0	
6	0	0	0	0	534	1	0	0	0	0	
7	0	0	0	0	532	2	0	0	0	0	
8	0	0	0	0	533	1	0	0	0	0	
9	0	0	0	0	533	0	0	0	0	0	
10	0	0	0	0	532	1	0	0	0	0	
11	0	0	0	0	532	1	0	0	0	0	
12	0	0	0	0	531	1	0	0	0	0	
13	0	0	0	0	531	1	0	0	0	0	
14	0	0	0	0	531	1	0	0	0	0	
15	0	0	0	0	530	2	0	0	0	0	
0	0	0	0	0	530	1	0	0	0	0	
1	0	0	0	0	530	0	0	0	0	0	
2	0	0	0	0	531	1	0	0	0	0	
3	0	0	0	0	531	1	0	0	0	0	
4	0	0	0	0	531	1	0	0	0	0	
5	0	0	0	0	531	1	0	0	0	0	
6	0	0	0	0	531	1	0	0	0	0	
7	0	0	0	0	531	2	0	0	0	0	
8	0	0	0	0	531	1	0	0	0	0	
9	0	0	0	0	529	1	0	0	0	0	
10	0	0	0	0	528	0	0	0	0	0	
11	0	0	0	0	527	1	0	0	0	0	
12	0	0	0	0	526	1	0	0	0	0	
13	0	0	0	0	525	1	0	0	0	0	
14	0	0	0	0	524	1	0	0	0	0	
15	0	0	0	0	523	2	0	0	0	0	
0	0	0	0	0	522	1	0	0	0	0	
1	0	0	0	0	521	1	0	0	0	0	
2	0	0	0	0	523	0	0	0	0	0	
3	0	0	0	0	524	1	0	0	0	0	
4	0	0	0	0	523	1	0	0	0	0	
5	0	0	0	0	523	1	0	0	0	0	
6	0	0	0	0	522	1	0	0	0	0	
7	0	0	0	0	522	2	0	0	0	0	
8	0	0	0	0	522	1	0	0	0	0	
9	0	0	0	0	523	1	0	0	0	0	
10	0	0	0	0	523	1	0	0	0	0	
11	0	0	0	0	523	1	0	0	0	0	
12	0	0	0	0	524	0	0	0	0	0	
13	0	0	0	0	525	1	0	0	0	0	
14	0	0	0	0	525	1	0	0	0	0	
15	0	0	0	0	526	2	0	0	0	0	
0	0	0	0	0	526	1	0	0	0	0	
1	0	0	0	0	526	1	0	0	0	0	
2	0	0	0	0	526	1	0	0	0	0	
3	0	0	0	0	526	1	0	0	0	0	
4	0	0	0	0	525	0	0	0	0	0	
5	0	0	0	0	524	1	0	0	0	0	
6	0	0	0	0	523	1	0	0	0	0	
7	0	0	0	0	523	2	0	0	0	0	
8	0	0	0	0	521	1	0	0	0	0	
9	0	0	0	0	521	1	0	0	0	0	
10	0	0	0	0	522	1	0	0	0	0	
11	0	0	0	0	522	1	0	0	0	0	
12	0	0	0	0	523	0	0	0	0	0	
13	0	0	0	0	523	1	0	0	0	0	
14	0	0	0	0	523	1	0	0	0	0	
15	0	0	0	0	524	2	0	0	0	0	
0	0	0	0	0	524	1	0	0	0	0	
1	0	0	0	0	524	1	0	0	0	0	
2	0	0	0	0	524	1	0	0	0	0	
3	0	0	0	0	525	1	0	0	0	0	
4	0	0	0	0	525	1	0	0	0	0	
5	0	0	0	0	524	1	0	0	0	0	
6	0	0	0	0	524	1	0	0	0	0	
7	0	0	0	0	524	2	0	0	0	0	
8	0	0	0	0	523	1	0	0	0	0	
9	0	0	0	0	522	1	0	0	0	0	
10	0	0	0	0	521	1	0	0	0	0	
11	0	0	0	0	521	1	0	0	0	0	
12	0	0	0	0	521	1	0	0	0	0	
13	0	0	0	0	520	1	0	0	0	0	
14	0	0	0	0	521	1	0	0	0	0	
15	0	0	0	0	521	2	0	0	0	0	
0	0	0	0	0	520	1	0	0	0	0	
1	0	0	0	0	520	1	0	0	0	0	
2	0	0	0	0	520	1	0	0	0	0	
3	0	0	0	0	521	1	0	0	0	0	
4	0	0	0	0	520	1	0	0	0	0	
5	0	0	0	0	521	1	0	0	0	0	
6	0	0	0	0	521	1	0	0	0	0	
7	0	0	0	0	521	1	0	0	0	0	
8	0	0	0	0	521	1	0	0	0	0	
9	0	0	0	0	520	1	0	0	0	0	
10	0	0	0	0	519	1	0	0	0	0	
11	0	0	0	0	519	1	0	0	0	0	
12	0	0	0	0	520	1	0	0	0	0	
13	0	0	0	0	520	1	0	0	0	0	
14	0	0	0	0	520	1	0	0	0	0	
15	0	0	0	0	519	1	0	0	0	0	
0	0	0	0	0	519	1	0	0	0	0	
1	0	0	0	0	520	1	0	0	0	0	
2	0	0	0	0	520	1	0	0	0	0	
3	0	0	0	0	521	1	0	0	0	0	
4	0	0	0	0	521	1	0	0	0	0	
5	0	0	0	0	522	1	0	0	0	0	
6	0	0	0	0	522	1	0	0	0	0	
7	0	0	0	0	523	1	0	0	0	0	
8	0	0	0	0	522	1	0	0	0	0	
9	0	0	0	0	522	1	0	0	0	0	
10	0	0	0	0	521	1	0	0	0	0	
11	0	0	0	0	521	1	0	0	0	0	
12	0	0	0	0	521	1	0	0	0	0	
13	0	0	0	0	521	0	0	0	0	0	
14	0	0	0	0	520	1	0	0	0	0	
15	0	0	0	0	520	2	0	0	0	0	
0	0	0	0	0	520	1	0	0	0	0	
1	0	0	0	0	519	1	0	0	0	0	
2	0	0	0	0	519	1	0	0	0	0	
3	0	0	0	0	519	1	0	0	0	0	
4	0	0	0	0	518	1	0	0	0	0	
5	0	0	0	0	518	1	0	0	0	0	
6	0	0	0	0	518	1	0	0	0	0	
7	0	0	0	0	518	2	0	0	0	0	
8	0	0	0	0	519	1	0	0	0	0	
9	0	0	0	0	519	1	0	0	0	0	
10	0	0	0	0	519	1	0	0	0	0	
11	0	0	0	0	519	1	0	0	0	0	
12	0	0	0	0	520	1	0	0	0	0	
13	0	0	0	0	521	1	0	0	0	0	
14	0	0	0	0	520	1	0	0	0	0	
15	0	0	0	0	519	2	0	0	0	0	
0	0	0	0	0	519	1	0	0	0	0	
1	0	0	0	0	518	1	0	0	0	0	
2	0	0	0	0	519	1	0	0	0	0	
3	0	0	0	0	519	1	0	0	0	0	
4	0	0	0	0	519	0	0	0	0	0	
5	0	0	0	0	519	1	0	0	0	0	
6	0	0	0	0	520	1	0	0	0	0	
7	0	0	0	0	521	2	0	0	0	0	
8	0	0	0	0	520	1	0	0	0	0	
9	0	0	0	0	520	1	0	0	0	0	
10	0	0	0	0	521	1	0	0	0	0	
11	0	0	0	0	522	1	0	0	0	0	
12	0	0	0	0	521	0	0	0	0	0	
13	0	0	0	0	521	1	0	0	0	0	
14	0	0	0	0	521	1	0	0	0	0	
15	0	0	0	0	520	2	0	0	0	0	
0	0	0	0	0	520	1	0	0	0	0	
1	0	0	0	0	521	1	0	0	0	0	
2	0	0	0	0	521	1	0	0	0	0	
3	0	0	0	0	521	1	0	0	0	0	
4	0	0	0	0	521	0	0	0	0	0	
5	0	0	0	0	521	1	0	0	0	0	
6	0	0	0	0	521	1	0	0	0	0	
7	0	0	0	0	522	2	0	0	0	0	
8	0	0	0	0	521	1	0	0	0	0	
9	0	0	0	0	520	1	0	0	0	0	
10	0	0	0	0	519	0	0	0	0	0	
11	0	0	0	0	520	1	0	0	0	0	
12	0	0	0	0	519	1	0	0	0	0	
13	0	0	0	0	519	1	0	0	0	0	
14	0	0	0	0	519	1	0	0	0	0	
15	0	0	0	0	519	2	0	0	0	0	
0	0	0	0	0	518	1	0	0	0	0	
1	0	0	0	0	517	1	0	0	0	0	
2	0	0	0	0	517	0	0	0	0	0	
3	0	0	0	0	517	1	0	0	0	0	
4	0	0	0	0	516	1	0	0	0	0	
5	0	0	0	0	516	1	0	0	0	0	
6	0	0	0	0	516	1	0	0	0	0	
7	0	0	0	0	516	2	0	0	0	0	
8	0	0	0	0	515	1	0	0	0	0	
9	0	0	0	0	516	1	0	0	0	0	
10	0	0	0	0	517	0	0	0	0	0	
11	0	0	0	0	518	1	0	0	0	0	
12	0	0	0	0	518	1	0	0	0	0	
13	0	0	0	0	517	1	0	0	0	0	
14	0	0	0	0	516	1	0	0	0	0	
15	0	0	0	0	517	2	0	0	0	0	
0	0	0	0	0	517	1	0	0	0	0	
1	0	0	0	0	518	0	0	0	0	0	
2	0	0	0	0	519	1	0	0	0	0	
3	0	0	0	0	519	1	0	0	0	0	
4	0	0	0	0	519	1	0	0	0	0	
5	0	0	0	0	519	1	0	0	0	0	
6	0	0	0	0	518	1	0	0	0	0	
7	0	0	0	0	517	2	0	0	0	0	
8	0	0	0	0	517	1	0	0	0	0	
9	0	0	0	0	516	0	0	0	0	0	
10	0	0	0	0	516	1	0	0	0	0	
11	0	0	0	0	515	1	0	0	0	0	
12	0	0	0	0	514	1	0	0	0	0	
13	0	0	0	0	515	1	0	0	0	0	
14	0	0	0	0	515	1	0	0	0	0	
15	0	0	0	0	514	2	0	0	0	0	
0	0	0	0	0	514	1	0	0	0	0	
1	0	0	0	0	515	1	0	0	0	0	
2	0	0	0	0	516	1	0	0	0	0	
3	0	0	0	0	516	1	0	0	0	0	
4	0	0	0	0	516	1	0	0	0	0	
5	0	0	0	0	517	1	0	0	0	0	
6	0	0	0	0	516	1	0	0	0	0	
7	0	0	0	0	517	1	0	0	0	0	
8	0	0	0	0	517	1	0	0	0	0	
9	0	0	0	0	517	1	0	0	0	0	
10	0	0	0	0	517	1	0	0	0	0	
11	0	0	0	0	517	1	0	0	0	0	
12	0	0	0	0	518	1	0	0	0	0	
13	0	0	0	0	518	1	0	0	0	0	
14	0	0	0	0	518	1	0	0	0	0	
15	0	0	0	0	517	1	0	0	0	0	
0	0	0	0	0	515	1	0	0	0	0	
1	0	0	0	0	516	1	0	0	0	0	
2	0	0	0	0	516	1	0	0	0	0	
3	0	0	0	0	516	1	0	0	0	0	
4	0	0	0	0	515	1	0	0	0	0	
5	0	0	0	0	515	1	0	0	0	0	
6	0	0	0	0	513	1	0	0	0	0	
7	0	0	0	0	513	2	0	0	0	0	
8	0	0	0	0	513	1	0	0	0	0	
9	0	0	0	0	513	0	0	0	0	0	
10	0	0	0	0	514	1	0	0	0	0	
11	0	0	0	0	515	1	0	0	0	0	
12	0	0	0	0	514	1	0	0	0	0	
13	0	0	0	0	513	1	0	0	0	0	
14	0	0	0	0	513	1	0	0	0	0	
15	0	0	0	0	512	2	0	0	0	0	
0	0	0	0	0	513	1	0	0	0	0	
1	0	0	0	0	515	0	0	0	0	0	
2	0	0	0	0	515	1	0	0	0	0	
3	0	0	0	0	515	1	0	0	0	0	
4	0	0	0	0	513	1	0	0	0	0	
5	0	0	0	0	511	1	0	0	0	0	
6	0	0	0	0	510	1	0	0	0	0	
7	0	0	0	0	510	2	0	0	0	0	
8	0	0	0	0	509	1	0	0	0	0	
9	0	0	0	0	508	0	0	0	0	0	
10	0	0	0	0	506	1	0	0	0	0	
11	0	0	0	0	505	1	0	0	0	0	
12	0	0	0	0	504	1	0	0	0	0	
13	0	0	0	0	504	1	0	0	0	0	
14	0	0	0	0	503	1	0	0	0	0	
15	0	0	0	0	502	2	0	0	0	0	
0	0	0	0	0	500	1	0	0	0	0	
1	0	0	0	0	499	1	0	0	0	0	
2	0	0	0	0	497	0	0	0	0	0	
3	0	0	0	0	497	1	0	0	0	0	
4	0	0	0	0	496	1	0	0	0	0	
5	0	0	0	0	494	1	0	0	0	0	
6	0	0	0	0	493	1	0	0	0	0	
7	0	0	0	0	494	2	0	0	0	0	
8	0	0	0	0	493	1	0	0	0	0	
9	0	0	0	0	494	1	0	0	0	0	
10	0	0	0	0	494	0	0	0	0	0	
11	0	0	0	0	494	1	0	0	0	0	
12	0	0	0	0	494	1	0	0	0	0	
13	0	0	0	0	496	1	0	0	0	0	
14	0	0	0	0	496	1	0	0	0	0	
15	0	0	0	0	496	2	0	0	0	0	
0	0	0	0	0	497	1	0	0	0	0	
1	0	0	0	0	498	1	0	0	0	0	
2	0	0	0	0	498	0	0	0	0	0	
3	0	0	0	0	499	1	0	0	0	0	
4	0	0	0	0	499	0	0	0	0	0	
5	0	0	0	0	499	1	0	0	0	0	
6	0	0	0	0	500	1	0	0	0	0	
7	0	0	0	0	500	2	0	0	0	0	
8	0	0	0	0	499	1	0	0	0	0	
9	0	0	0	0	500	1	0	0	0	0	
10	0	0	0	0	500	1	0	0	0	0	
11	0	0	0	0	501	1	0	0	0	0	
12	0	0	0	0	502	0	0	0	0	0	
13	0	0	0	0	502	1	0	0	0	0	
14	0	0	0	0	502	1	0	0	0	0	
15	0	0	0	0	502	2	0	0	0	0	
0	0	0	0	0	502	1	0	0	0	0	
1	0	0	0	0	503	1	0	0	0	0	
2	0	0	0	0	504	1	0	0	0	0	
3	0	0	0	0	505	1	0	0	0	0	
4	0	0	0	0	505	0	0	0	0	0	
5	0	0	0	0	506	1	0	0	0	0	
6	0	0	0	0	508	1	0	0	0	0	
7	0	0	0	0	509	2	0	0	0	0	
8	0	0	0	0	510	1	0	0	0	0	
9	0	0	0	0	511	1	0	0	0	0	
10	0	0	0	0	512	1	0	0	0	0	
11	0	0	0	0	513	1	0	0	0	0	
12	0	0	0	0	515	1	0	0	0	0	
13	0	0	0	0	516	1	0	0	0	0	
14	0	0	0	0	517	1	0	0	0	0	
15	0	0	0	0	519	2	0	0	0	0	
0	0	0	0	0	521	1	0	0	0	0	
1	0	0	0	0	523	1	0	0	0	0	
2	0	0	0	0	524	1	0	0	0	0	
3	0	0	0	0	525	1	0	0	0	0	
4	0	0	0	0	525	1	0	0	0	0	
5	0	0	0	0	524	1	0	0	0	0	
6	0	0	0	0	524	1	0	0	0	0	
7	0	0	0	0	524	2	0	0	0	0	
8	0	0	0	0	524	1	0	0	0	0	
9	0	0	0	0	524	1	0	0	0	0	
10	0	0	0	0	524	1	0	0	0	0	
11	0	0	0	0	525	1	0	0	0	0	
12	0	0	0	0	527	1	0	0	0	0	
13	0	0	0	0	527	1	0	0	0	0	
14	0	0	0	0	527	1	0	0	0	0	
15	0	0	0	0	527	1	0	0	0	0	
0	0	0	0	0	527	1	0	0	0	0	
1	0	0	0	0	527	1	0	0	0	0	
2	0	0	0	0	526	1	0	0	0	0	
3	0	0	0	0	526	1	0	0	0	0	
4	0	0	0	0	526	1	0	0	0	0	
5	0	0	0	0	524	1	0	0	0	0	
6	0	0	0	0	523	1	0	0	0	0	
7	0	0	0	0	522	1	0	0	0	0	
8	0	0	0	0	523	1	0	0	0	0	
9	0	0	0	0	523	1	0	0	0	0	
10	0	0	0	0	522	1	0	0	0	0	
11	0	0	0	0	523	1	0	0	0	0	
12	0	0	0	0	523	1	0	0	0	0	
13	0	0	0	0	524	1	0	0	0	0	
14	0	0	0	0	524	1	0	0	0	0	
15	0	0	0	0	524	1	0	0	0	0	
0	0	0	0	0	525	1	0	0	0	0	
1	0	0	0	0	524	1	0	0	0	0	
2	0	0	0	0	523	1	0	0	0	0	
3	0	0	0	0	524	1	0	0	0	0	
4	0	0	0	0	523	1	0	0	0	0	
5	0	0	0	0	523	1	0	0	0	0	
6	0	0	0	0	524	1	0	0	0	0	
7	0	0	0	0	525	2	0	0	0	0	
8	0	0	0	0	526	1	0	0	0	0	
9	0	0	0	0	525	1	0	0	0	0	
10	0	0	0	0	525	1	0	0	0	0	
11	0	0	0	0	525	1	0	0	0	0	
12	0	0	0	0	525	1	0	0	0	0	
13	0	0	0	0	525	1	0	0	0	0	
14	0	0	0	0	524	1	0	0	0	0	
15	0	0	0	0	524	2	0	0	0	0	
0	0	0	0	0	524	1	0	0	0	0	
1	0	0	0	0	524	1	0	0	0	0	
2	0	0	0	0	525	1	0	0	0	0	
3	0	0	0	0	525	1	0	0	0	0	
4	0	0	0	0	524	1	0	0	0	0	
5	0	0	0	0	524	1	0	0	0	0	
6	0	0	0	0	525	1	0	0	0	0	
7	0	0	0	0	525	2	0	0	0	0	
8	0	0	0	0	525	1	0	0	0	0	
9	0	0	0	0	524	1	0	0	0	0	
10	0	0	0	0	524	1	0	0	0	0	
11	0	0	0	0	524	1	0	0	0	0	
12	0	0	0	0	525	0	0	0	0	0	
13	0	0	0	0	525	1	0	0	0	0	
14	0	0	0	0	526	1	0	0	0	0	
15	0	0	0	0	527	2	0	0	0	0	
0	0	0	0	0	529	1	0	0	0	0	
1	0	0	0	0	531	1	0	0	0	0	
2	0	0	0	0	531	1	0	0	0	0	
3	0	0	0	0	531	1	0	0	0	0	
4	0	0	0	0	532	0	0	0	0	0	
5	0	0	0	0	532	1	0	0	0	0	
6	0	0	0	0	532	1	0	0	0	0	
7	0	0	0	0	531	2	0	0	0	0	
8	0	0	0	0	530	1	0	0	0	0	
9	0	0	0	0	528	1	0	0	0	0	
10	0	0	0	0	527	1	0	0	0	0	
11	0	0	0	0	524	1	0	0	0	0	
12	0	0	0	0	522	0	0	0	0	0	
13	0	0	0	0	520	1	0	0	0	0	
14	0	0	0	0	517	1	0	0	0	0	
15	0	0	0	0	512	2	0	0	0	0	
0	0	0	0	0	509	1	0	0	0	0	
1	0	0	0	0	505	1	0	0	0	0	
2	0	0	0	0	499	0	0	0	0	0	
3	0	0	0	0	493	1	0	0	0	0	
4	0	0	0	0	485	1	0	0	0	0	
5	0	0	0	0	476	1	0	0	0	0	
6	0	0	0	0	466	1	0	0	0	0	
7	0	0	0	0	457	1	0	0	0	0	
8	0	0	0	0	447	0	0	0	0	0	
9	0	0	0	0	440	0	0	0	0	0	
10	0	0	0	0	434	0	0	0	0	0	
11	0	0	0	0	428	0	0	0	0	0	
12	0	0	0	0	422	0	0	0	0	0	
13	0	0	0	0	416	0	0	0	0	0	
14	0	0	0	0	412	0	0	0	0	0	
15	0	0	0	0	409	1	0	0	0	0	
0	0	0	0	0	406	0	0	0	0	0	
1	0	0	0	0	401	0	0	0	0	0	
2	0	0	0	0	396	0	0	0	0	0	
3	0	0	0	0	392	0	0	0	0	0	
4	0	0	0	0	388	0	0	0	0	0	
5	0	0	0	0	385	0	0	0	0	0	
6	0	0	0	0	388	0	0	0	0	0	
7	0	0	0	0	397	1	0	0	0	0	
8	0	0	0	0	412	0	0	0	0	0	
9	0	0	0	0	431	0	0	0	0	0	
10	0	0	0	0	455	0	0	0	0	0	
11	0	0	0	0	478	1	0	0	0	0	
12	0	0	0	0	500	1	0	0	0	0	
13	0	0	0	0	521	1	0	0	0	0	
14	0	0	0	0	541	1	0	0	0	0	
15	0	0	0	0	558	2	0	0	0	0	
0	0	0	0	0	575	1	0	0	0	0	
1	0	0	0	0	588	0	0	0	0	0	
2	0	0	0	0	598	1	0	0	0	0	
3	0	0	0	0	607	1	0	0	0	0	
4	0	0	0	0	615	1	0	0	0	0	
5	0	0	0	0	621	2	0	0	0	0	
6	0	0	0	0	624	2	0	0	0	0	
7	0	0	0	0	627	3	0	0	0	0	
8	0	0	0	0	630	1	0	0	0	0	
9	0	0	0	0	632	0	0	0	0	0	
10	0	0	0	0	632	2	0	0	0	0	
11	0	0	0	0	632	2	0	0	0	0	
12	0	0	0	0	632	1	0	0	0	0	
13	0	0	0	0	631	2	0	0	0	0	
14	0	0	0	0	628	1	0	0	0	0	
15	0	0	0	0	626	2	0	0	0	0	
0	0	0	0	0	624	1	0	0	0	0	
1	0	0	0	0	621	2	0	0	0	0	
2	0	0	0	0	617	1	0	0	0	0	
3	0	0	0	0	614	1	0	0	0	0	
4	0	0	0	0	609	1	0	0	0	0	
5	0	0	0	0	603	1	0	0	0	0	
6	0	0	0	0	598	1	0	0	0	0	
7	0	0	0	0	591	2	0	0	0	0	
8	0	0	0	0	585	1	0	0	0	0	
9	0	0	0	0	577	1	0	0	0	0	
10	0	0	0	0	570	1	0	0	0	0	
11	0	0	0	0	563	1	0	0	0	0	
12	0	0	0	0	557	1	0	0	0	0	
13	0	0	0	0	550	1	0	0	0	0	
14	0	0	0	0	545	1	0	0	0	0	
15	0	0	0	0	540	1	0	0	0	0	
0	0	0	0	0	535	1	0	0	0	0	
1	0	0	0	0	531	0	0	0	0	0	
2	0	0	0	0	528	1	0	0	0	0	
3	0	0	0	0	526	1	0	0	0	0	
4	0	0	0	0	524	1	0	0	0	0	
5	0	0	0	0	521	1	0	0	0	0	
6	0	0	0	0	519	1	0	0	0	0	
7	0	0	0	0	519	2	0	0	0	0	
8	0	0	0	0	519	1	0	0	0	0	
9	0	0	0	0	518	0	0	0	0	0	
10	0	0	0	0	517	1	0	0	0	0	
11	0	0	0	0	516	1	0	0	0	0	
12	0	0	0	0	516	1	0	0	0	0	
13	0	0	0	0	516	1	0	0	0	0	
14	0	0	0	0	515	1	0	0	0	0	
15	0	0	0	0	515	2	0	0	0	0	
0	0	0	0	0	515	1	0	0	0	0	
1	0	0	0	0	514	0	0	0	0	0	
2	0	0	0	0	513	1	0	0	0	0	
3	0	0	0	0	513	1	0	0	0	0	
4	0	0	0	0	512	1	0	0	0	0	
5	0	0	0	0	512	1	0	0	0	0	
6	0	0	0	0	512	1	0	0	0	0	
7	0	0	0	0	511	2	0	0	0	0	
8	0	0	0	0	509	1	0	0	0	0	
9	0	0	0	0	508	1	0	0	0	0	
10	0	0	0	0	508	0	0	0	0	0	
11	0	0	0	0	508	1	0	0	0	0	
12	0	0	0	0	506	1	0	0	0	0	
13	0	0	0	0	505	1	0	0	0	0	
14	0	0	0	0	505	1	0	0	0	0	
15	0	0	0	0	504	2	0	0	0	0	
0	0	0	0	0	504	1	0	0	0	0	
1	0	0	0	0	504	1	0	0	0	0	
2	0	0	0	0	504	0	0	0	0	0	
3	0	0	0	0	504	1	0	0	0	0	
4	0	0	0	0	504	1	0	0	0	0	
5	0	0	0	0	505	1	0	0	0	0	
6	0	0	0	0	506	1	0	0	0	0	
7	0	0	0	0	506	2	0	0	0	0	
8	0	0	0	0	507	1	0	0	0	0	
9	0	0	0	0	507	1	0	0	0	0	
10	0	0	0	0	507	0	0	0	0	0	
11	0	0	0	0	506	1	0	0	0	0	
12	0	0	0	0	505	1	0	0	0	0	
13	0	0	0	0	505	1	0	0	0	0	
14	0	0	0	0	505	1	0	0	0	0	
15	0	0	0	0	505	2	0	0	0	0	
0	0	0	0	0	504	1	0	0	0	0	
1	0	0	0	0	505	1	0	0	0	0	
2	0	0	0	0	504	1	0	0	0	0	
3	0	0	0	0	504	1	0	0	0	0	
4	0	0	0	0	504	0	0	0	0	0	
5	0	0	0	0	505	1	0	0	0	0	
6	0	0	0	0	504	1	0	0	0	0	
7	0	0	0	0	504	2	0	0	0	0	
8	0	0	0	0	504	1	0	0	0	0	
9	0	0	0	0	504	1	0	0	0	0	
10	0	0	0	0	504	1	0	0	0	0	
11	0	0	0	0	504	1	0	0	0	0	
12	0	0	0	0	503	0	0	0	0	0	
13	0	0	0	0	502	1	0	0	0	0	
14	0	0	0	0	501	1	0	0	0	0	
15	0	0	0	0	502	2	0	0	0	0	
0	0	0	0	0	502	1	0	0	0	0	
1	0	0	0	0	503	1	0	0	0	0	
2	0	0	0	0	502	1	0	0	0	0	
3	0	0	0	0	502	1	0	0	0	0	
4	0	0	0	0	501	1	0	0	0	0	
5	0	0	0	0	499	0	0	0	0	0	
6	0	0	0	0	500	1	0	0	0	0	
7	0	0	0	0	501	2	0	0	0	0	
8	0	0	0	0	502	1	0	0	0	0	
9	0	0	0	0	503	1	0	0	0	0	
10	0	0	0	0	502	1	0	0	0	0	
11	0	0	0	0	502	1	0	0	0	0	
12	0	0	0	0	502	1	0	0	0	0	
13	0	0	0	0	502	0	0	0	0	0	
14	0	0	0	0	501	1	0	0	0	0	
15	0	0	0	0	501	2	0	0	0	0	
0	0	0	0	0	500	1	0	0	0	0	
1	0	0	0	0	499	1	0	0	0	0	
2	0	0	0	0	499	1	0	0	0	0	
3	0	0	0	0	501	1	0	0	0	0	
4	0	0	0	0	502	1	0	0	0	0	
5	0	0	0	0	502	0	0	0	0	0	
6	0	0	0	0	502	1	0	0	0	0	
7	0	0	0	0	502	2	0	0	0	0	
8	0	0	0	0	501	1	0	0	0	0	
9	0	0	0	0	502	1	0	0	0	0	
10	0	0	0	0	501	1	0	0	0	0	
11	0	0	0	0	502	1	0	0	0	0	
12	0	0	0	0	502	1	0	0	0	0	
13	0	0	0	0	502	1	0	0	0	0	
14	0	0	0	0	501	1	0	0	0	0	
15	0	0	0	0	501	1	0	0	0	0	
0	0	0	0	0	500	1	0	0	0	0	
1	0	0	0	0	499	1	0	0	0	0	
2	0	0	0	0	499	1	0	0	0	0	
3	0	0	0	0	499	1	0	0	0	0	
4	0	0	0	0	500	1	0	0	0	0	
5	0	0	0	0	502	1	0	0	0	0	
6	0	0	0	0	502	1	0	0	0	0	
7	0	0	0	0	502	1	0	0	0	0	
8	0	0	0	0	503	1	0	0	0	0	
9	0	0	0	0	503	1	0	0	0	0	
10	0	0	0	0	504	1	0	0	0	0	
11	0	0	0	0	504	1	0	0	0	0	
12	0	0	0	0	504	1	0	0	0	0	
13	0	0	0	0	504	1	0	0	0	0	
14	0	0	0	0	504	1	0	0	0	0	
15	0	0	0	0	505	2	0	0	0	0	
0	0	0	0	0	504	1	0	0	0	0	
1	0	0	0	0	504	1	0	0	0	0	
2	0	0	0	0	504	1	0	0	0	0	
3	0	0	0	0	504	1	0	0	0	0	
4	0	0	0	0	503	1	0	0	0	0	
5	0	0	0	0	501	0	0	0	0	0	
6	0	0	0	0	500	1	0	0	0	0	
7	0	0	0	0	500	2	0	0	0	0	
8	0	0	0	0	500	1	0	0	0	0	
9	0	0	0	0	500	1	0	0	0	0	
10	0	0	0	0	500	1	0	0	0	0	
11	0	0	0	0	500	1	0	0	0	0	
12	0	0	0	0	499	1	0	0	0	0	
13	0	0	0	0	499	0	0	0	0	0	
14	0	0	0	0	499	1	0	0	0	0	
15	0	0	0	0	498	2	0	0	0	0	
0	0	0	0	0	497	1	0	0	0	0	
1	0	0	0	0	497	1	0	0	0	0	
2	0	0	0	0	496	1	0	0	0	0	
3	0	0	0	0	497	1	0	0	0	0	
4	0	0	0	0	496	0	0	0	0	0	
5	0	0	0	0	497	1	0	0	0	0	
6	0	0	0	0	497	1	0	0	0	0	
7	0	0	0	0	497	2	0	0	0	0	
8	0	0	0	0	497	1	0	0	0	0	
9	0	0	0	0	497	1	0	0	0	0	
10	0	0	0	0	497	1	0	0	0	0	
11	0	0	0	0	496	1	0	0	0	0	
12	0	0	0	0	496	0	0	0	0	0	
13	0	0	0	0	495	1	0	0	0	0	
14	0	0	0	0	496	1	0	0	0	0	
15	0	0	0	0	496	2	0	0	0	0	
0	0	0	0	0	496	1	0	0	0	0	
1	0	0	0	0	496	1	0	0	0	0	
2	0	0	0	0	496	1	0	0	0	0	
3	0	0	0	0	497	1	0	0	0	0	
4	0	0	0	0	498	0	0	0	0	0	
5	0	0	0	0	497	1	0	0	0	0	
6	0	0	0	0	497	1	0	0	0	0	
7	0	0	0	0	498	2	0	0	0	0	
8	0	0	0	0	498	1	0	0	0	0	
9	0	0	0	0	498	1	0	0	0	0	
10	0	0	0	0	498	0	0	0	0	0	
11	0	0	0	0	499	1	0	0	0	0	
12	0	0	0	0	499	1	0	0	0	0	
13	0	0	0	0	498	1	0	0	0	0	
14	0	0	0	0	498	1	0	0	0	0	
15	0	0	0	0	497	2	0	0	0	0	
0	0	0	0	0	496	1	0	0	0	0	
1	0	0	0	0	496	1	0	0	0	0	
2	0	0	0	0	496	0	0	0	0	0	
3	0	0	0	0	496	1	0	0	0	0	
4	0	0	0	0	497	1	0	0	0	0	
5	0	0	0	0	497	1	0	0	0	0	
6	0	0	0	0	498	1	0	0	0	0	
7	0	0	0	0	498	2	0	0	0	0	
8	0	0	0	0	498	1	0	0	0	0	
9	0	0	0	0	497	1	0	0	0	0	
10	0	0	0	0	497	0	0	0	0	0	
11	0	0	0	0	497	1	0	0	0	0	
12	0	0	0	0	497	1	0	0	0	0	
13	0	0	0	0	498	1	0	0	0	0	
14	0	0	0	0	498	1	0	0	0	0	
15	0	0	0	0	498	2	0	0	0	0	
0	0	0	0	0	498	1	0	0	0	0	
1	0	0	0	0	498	0	0	0	0	0	
2	0	0	0	0	498	1	0	0	0	0	
3	0	0	0	0	498	1	0	0	0	0	
4	0	0	0	0	497	1	0	0	0	0	
5	0	0	0	0	497	1	0	0	0	0	
6	0	0	0	0	497	1	0	0	0	0	
7	0	0	0	0	497	2	0	0	0	0	
8	0	0	0	0	496	1	0	0	0	0	
9	0	0	0	0	496	0	0	0	0	0	
10	0	0	0	0	497	1	0	0	0	0	
11	0	0	0	0	497	1	0	0	0	0	
12	0	0	0	0	498	1	0	0	0	0	
13	0	0	0	0	498	1	0	0	0	0	
14	0	0	0	0	499	1	0	0	0	0	
15	0	0	0	0	500	2	0	0	0	0	
0	0	0	0	0	500	1	0	0	0	0	
1	0	0	0	0	501	0	0	0	0	0	
2	0	0	0	0	502	1	0	0	0	0	
3	0	0	0	0	503	1	0	0	0	0	
4	0	0	0	0	505	1	0	0	0	0	
5	0	0	0	0	506	1	0	0	0	0	
6	0	0	0	0	507	1	0	0	0	0	
7	0	0	0	0	508	1	0	0	0	0	
8	0	0	0	0	508	1	0	0	0	0	
9	0	0	0	0	507	1	0	0	0	0	
10	0	0	0	0	507	1	0	0	0	0	
11	0	0	0	0	508	1	0	0	0	0	
12	0	0	0	0	507	1	0	0	0	0	
13	0	0	0	0	508	1	0	0	0	0	
14	0	0	0	0	509	1	0	0	0	0	
15	0	0	0	0	511	1	0	0	0	0	
0	0	0	0	0	511	1	0	0	0	0	
1	0	0	0	0	511	1	0	0	0	0	
2	0	0	0	0	512	1	0	0	0	0	
3	0	0	0	0	512	1	0	0	0	0	
4	0	0	0	0	513	1	0	0	0	0	
5	0	0	0	0	515	1	0	0	0	0	
6	0	0	0	0	516	1	0	0	0	0	
7	0	0	0	0	516	1	0	0	0	0	
8	0	0	0	0	517	1	0	0	0	0	
9	0	0	0	0	518	1	0	0	0	0	
10	0	0	0	0	519	1	0	0	0	0	
11	0	0	0	0	520	1	0	0	0	0	
12	0	0	0	0	521	1	0	0	0	0	
13	0	0	0	0	522	1	0	0	0	0	
14	0	0	0	0	523	1	0	0	0	0	
15	0	0	0	0	523	2	0	0	0	0	
0	0	0	0	0	524	1	0	0	0	0	
1	0	0	0	0	525	0	0	0	0	0	
2	0	0	0	0	526	1	0	0	0	0	
3	0	0	0	0	528	1	0	0	0	0	
4	0	0	0	0	531	1	0	0	0	0	
5	0	0	0	0	531	1	0	0	0	0	
6	0	0	0	0	531	1	0	0	0	0	
7	0	0	0	0	531	2	0	0	0	0	
8	0	0	0	0	531	1	0	0	0	0	
9	0	0	0	0	531	0	0	0	0	0	
10	0	0	0	0	530	1	0	0	0	0	
11	0	0	0	0	531	1	0	0	0	0	
12	0	0	0	0	531	1	0	0	0	0	
13	0	0	0	0	532	1	0	0	0	0	
14	0	0	0	0	533	1	0	0	0	0	
15	0	0	0	0	534	2	0	0	0	0	
0	0	0	0	0	534	1	0	0	0	0	
1	0	0	0	0	534	0	0	0	0	0	
2	0	0	0	0	534	1	0	0	0	0	
3	0	0	0	0	534	1	0	0	0	0	
4	0	0	0	0	534	1	0	0	0	0	
5	0	0	0	0	534	1	0	0	0	0	
6	0	0	0	0	536	1	0	0	0	0	
7	0	0	0	0	537	2	0	0	0	0	
8	0	0	0	0	537	1	0	0	0	0	
9	0	0	0	0	537	1	0	0	0	0	
10	0	0	0	0	537	1	0	0	0	0	
11	0	0	0	0	538	1	0	0	0	0	
12	0	0	0	0	539	1	0	0	0	0	
13	0	0	0	0	539	1	0	0	0	0	
14	0	0	0	0	540	1	0	0	0	0	
15	0	0	0	0	540	2	0	0	0	0	
0	0	0	0	0	540	1	0	0	0	0	
1	0	0	0	0	539	1	0	0	0	0	
2	0	0	0	0	540	1	0	0	0	0	
3	0	0	0	0	540	1	0	0	0	0	
4	0	0	0	0	540	1	0	0	0	0	
5	0	0	0	0	541	1	0	0	0	0	
6	0	0	0	0	541	1	0	0	0	0	
7	0	0	0	0	540	2	0	0	0	0	
8	0	0	0	0	540	1	0	0	0	0	
9	0	0	0	0	540	1	0	0	0	0	
10	0	0	0	0	539	1	0	0	0	0	
11	0	0	0	0	538	1	0	0	0	0	
12	0	0	0	0	539	0	0	0	0	0	
13	0	0	0	0	539	1	0	0	0	0	
14	0	0	0	0	540	1	0	0	0	0	
15	0	0	0	0	539	2	0	0	0	0	
0	0	0	0	0	538	1	0	0	0	0	
1	0	0	0	0	537	1	0	0	0	0	
2	0	0	0	0	536	1	0	0	0	0	
3	0	0	0	0	536	1	0	0	0	0	
4	0	0	0	0	536	0	0	0	0	0	
5	0	0	0	0	536	1	0	0	0	0	
6	0	0	0	0	538	1	0	0	0	0	
7	0	0	0	0	539	2	0	0	0	0	
8	0	0	0	0	539	1	0	0	0	0	
9	0	0	0	0	539	1	0	0	0	0	
10	0	0	0	0	538	1	0	0	0	0	
11	0	0	0	0	537	1	0	0	0	0	
12	0	0	0	0	536	0	0	0	0	0	
13	0	0	0	0	536	1	0	0	0	0	
14	0	0	0	0	535	1	0	0	0	0	
15	0	0	0	0	537	2	0	0	0	0	
0	0	0	0	0	536	1	0	0	0	0	
1	0	0	0	0	536	1	0	0	0	0	
2	0	0	0	0	536	1	0	0	0	0	
3	0	0	0	0	536	1	0	0	0	0	
4	0	0	0	0	535	1	0	0	0	0	
5	0	0	0	0	534	1	0	0	0	0	
6	0	0	0	0	532	1	0	0	0	0	
7	0	0	0	0	531	2	0	0	0	0	
8	0	0	0	0	529	1	0	0	0	0	
9	0	0	0	0	528	1	0	0	0	0	
10	0	0	0	0	528	1	0	0	0	0	
11	0	0	0	0	528	1	0	0	0	0	
12	0	0	0	0	528	1	0	0	0	0	
13	0	0	0	0	528	1	0	0	0	0	
14	0	0	0	0	529	1	0	0	0	0	
15	0	0	0	0	530	2	0	0	0	0	
0	0	0	0	0	529	1	0	0	0	0	
1	0	0	0	0	530	1	0	0	0	0	
2	0	0	0	0	531	1	0	0	0	0	
3	0	0	0	0	530	1	0	0	0	0	
4	0	0	0	0	530	1	0	0	0	0	
5	0	0	0	0	529	1	0	0	0	0	
6	0	0	0	0	529	1	0	0	0	0	
7	0	0	0	0	529	1	0	0	0	0	
8	0	0	0	0	529	1	0	0	0	0	
9	0	0	0	0	529	1	0	0	0	0	
10	0	0	0	0	529	1	0	0	0	0	
11	0	0	0	0	529	1	0	0	0	0	
12	0	0	0	0	529	1	0	0	0	0	
13	0	0	0	0	529	1	0	0	0	0	
14	0	0	0	0	529	1	0	0	0	0	
15	0	0	0	0	527	1	0	0	0	0	
0	0	0	0	0	527	1	0	0	0	0	
1	0	0	0	0	527	1	0	0	0	0	
2	0	0	0	0	527	1	0	0	0	0	
3	0	0	0	0	528	1	0	0	0	0	
4	0	0	0	0	529	1	0	0	0	0	
5	0	0	0	0	529	1	0	0	0	0	
6	0	0	0	0	529	1	0	0	0	0	
7	0	0	0	0	529	1	0	0	0	0	
8	0	0	0	0	529	1	0	0	0	0	
9	0	0	0	0	528	1	0	0	0	0	
10	0	0	0	0	528	1	0	0	0	0	
11	0	0	0	0	528	1	0	0	0	0	
12	0	0	0	0	528	1	0	0	0	0	
13	0	0	0	0	529	1	0	0	0	0	
14	0	0	0	0	528	1	0	0	0	0	
15	0	0	0	0	527	2	0	0	0	0	
0	0	0	0	0	526	1	0	0	0	0	
1	0	0	0	0	524	1	0	0	0	0	
2	0	0	0	0	524	1	0	0	0	0	
3	0	0	0	0	524	1	0	0	0	0	
4	0	0	0	0	522	1	0	0	0	0	
5	0	0	0	0	522	1	0	0	0	0	
6	0	0	0	0	521	1	0	0	0	0	
7	0	0	0	0	522	2	0	0	0	0	
8	0	0	0	0	521	1	0	0	0	0	
9	0	0	0	0	521	1	0	0	0	0	
10	0	0	0	0	524	1	0	0	0	0	
11	0	0	0	0	525	1	0	0	0	0	
12	0	0	0	0	526	1	0	0	0	0	
13	0	0	0	0	526	1	0	0	0	0	
14	0	0	0	0	525	1	0	0	0	0	
15	0	0	0	0	525	2	0	0	0	0	
0	0	0	0	0	524	1	0	0	0	0	
1	0	0	0	0	524	1	0	0	0	0	
2	0	0	0	0	525	1	0	0	0	0	
3	0	0	0	0	526	1	0	0	0	0	
4	0	0	0	0	524	0	0	0	0	0	
5	0	0	0	0	523	1	0	0	0	0	
6	0	0	0	0	522	1	0	0	0	0	
7	0	0	0	0	521	2	0	0	0	0	
8	0	0	0	0	520	1	0	0	0	0	
9	0	0	0	0	519	1	0	0	0	0	
10	0	0	0	0	521	1	0	0	0	0	
11	0	0	0	0	523	1	0	0	0	0	
12	0	0	0	0	524	0	0	0	0	0	
13	0	0	0	0	524	1	0	0	0	0	
14	0	0	0	0	524	1	0	0	0	0	
15	0	0	0	0	522	2	0	0	0	0	
0	0	0	0	0	521	1	0	0	0	0	
1	0	0	0	0	520	1	0	0	0	0	
2	0	0	0	0	519	1	0	0	0	0	
3	0	0	0	0	520	1	0	0	0	0	
4	0	0	0	0	520	0	0	0	0	0	
5	0	0	0	0	521	1	0	0	0	0	
6	0	0	0	0	519	1	0	0	0	0	
7	0	0	0	0	521	2	0	0	0	0	
8	0	0	0	0	522	1	0	0	0	0	
9	0	0	0	0	522	1	0	0	0	0	
10	0	0	0	0	521	0	0	0	0	0	
11	0	0	0	0	520	1	0	0	0	0	
12	0	0	0	0	522	1	0	0	0	0	
13	0	0	0	0	523	1	0	0	0	0	
14	0	0	0	0	524	1	0	0	0	0	
15	0	0	0	0	523	2	0	0	0	0	
0	0	0	0	0	522	1	0	0	0	0	
1	0	0	0	0	522	1	0	0	0	0	
2	0	0	0	0	521	0	0	0	0	0	
3	0	0	0	0	523	1	0	0	0	0	
4	0	0	0	0	523	1	0	0	0	0	
5	0	0	0	0	521	1	0	0	0	0	
6	0	0	0	0	521	1	0	0	0	0	
7	0	0	0	0	522	2	0	0	0	0	
8	0	0	0	0	523	1	0	0	0	0	
9	0	0	0	0	522	1	0	0	0	0	
10	0	0	0	0	522	0	0	0	0	0	
11	0	0	0	0	521	1	0	0	0	0	
12	0	0	0	0	519	1	0	0	0	0	
13	0	0	0	0	520	1	0	0	0	0	
14	0	0	0	0	518	1	0	0	0	0	
15	0	0	0	0	517	2	0	0	0	0	
0	0	0	0	0	519	1	0	0	0	0	
1	0	0	0	0	519	0	0	0	0	0	
2	0	0	0	0	517	1	0	0	0	0	
3	0	0	0	0	518	1	0	0	0	0	
4	0	0	0	0	517	1	0	0	0	0	
5	0	0	0	0	517	1	0	0	0	0	
6	0	0	0	0	519	1	0	0	0	0	
7	0	0	0	0	519	2	0	0	0	0	
8	0	0	0	0	519	1	0	0	0	0	
9	0	0	0	0	519	0	0	0	0	0	
10	0	0	0	0	519	1	0	0	0	0	
11	0	0	0	0	520	1	0	0	0	0	
12	0	0	0	0	519	1	0	0	0	0	
13	0	0	0	0	519	1	0	0	0	0	
14	0	0	0	0	518	1	0	0	0	0	
15	0	0	0	0	512	2	0	0	0	0	
0	0	0	0	0	514	1	0	0	0	0	
1	0	0	0	0	516	1	0	0	0	0	
2	0	0	0	0	518	1	0	0	0	0	
3	0	0	0	0	520	1	0	0	0	0	
4	0	0	0	0	522	1	0	0	0	0	
5	0	0	0	0	524	1	0	0	0	0	
6	0	0	0	0	526	1	0	0	0	0	
7	0	0	0	0	525	1	0	0	0	0	
8	0	0	0	0	524	1	0	0	0	0	
9	0	0	0	0	522	1	0	0	0	0	
10	0	0	0	0	520	1	0	0	0	0	
11	0	0	0	0	519	1	0	0	0	0	
12	0	0	0	0	519	1	0	0	0	0	
13	0	0	0	0	519	1	0	0	0	0	
14	0	0	0	0	519	1	0	0	0	0	
15	0	0	0	0	518	1	0	0	0	0	
0	0	0	0	0	517	1	0	0	0	0	
1	0	0	0	0	519	1	0	0	0	0	
2	0	0	0	0	519	1	0	0	0	0	
3	0	0	0	0	516	1	0	0	0	0	
4	0	0	0	0	515	1	0	0	0	0	
5	0	0	0	0	514	1	0	0	0	0	
6	0	0	0	0	514	1	0	0	0	0	
7	0	0	0	0	515	2	0	0	0	0	
8	0	0	0	0	515	1	0	0	0	0	
9	0	0	0	0	516	0	0	0	0	0	
10	0	0	0	0	516	1	0	0	0	0	
11	0	0	0	0	515	1	0	0	0	0	
12	0	0	0	0	515	1	0	0	0	0	
13	0	0	0	0	514	1	0	0	0	0	
14	0	0	0	0	514	1	0	0	0	0	
15	0	0	0	0	514	2	0	0	0	0	
0	0	0	0	0	514	1	0	0	0	0	
1	0	0	0	0	515	0	0	0	0	0	
2	0	0	0	0	515	1	0	0	0	0	
3	0	0	0	0	515	1	0	0	0	0	
4	0	0	0	0	516	1	0	0	0	0	
5	0	0	0	0	517	1	0	0	0	0	
6	0	0	0	0	517	1	0	0	0	0	
7	0	0	0	0	517	2	0	0	0	0	
8	0	0	0	0	517	1	0	0	0	0	
9	0	0	0	0	518	0	0	0	0	0	
10	0	0	0	0	518	1	0	0	0	0	
11	0	0	0	0	519	1	0	0	0	0	
12	0	0	0	0	517	1	0	0	0	0	
13	0	0	0	0	517	1	0	0	0	0	
14	0	0	0	0	517	1	0	0	0	0	
15	0	0	0	0	518	2	0	0	0	0	
0	0	0	0	0	519	1	0	0	0	0	
1	0	0	0	0	519	1	0	0	0	0	
2	0	0	0	0	519	0	0	0	0	0	
3	0	0	0	0	519	1	0	0	0	0	
4	0	0	0	0	520	1	0	0	0	0	
5	0	0	0	0	520	1	0	0	0	0	
6	0	0	0	0	520	1	0	0	0	0	
7	0	0	0	0	519	2	0	0	0	0	
8	0	0	0	0	519	1	0	0	0	0	
9	0	0	0	0	519	1	0	0	0	0	
10	0	0	0	0	519	0	0	0	0	0	
11	0	0	0	0	518	1	0	0	0	0	
12	0	0	0	0	518	1	0	0	0	0	
13	0	0	0	0	518	1	0	0	0	0	
14	0	0	0	0	515	1	0	0	0	0	
15	0	0	0	0	515	2	0	0	0	0	
0	0	0	0	0	514	1	0	0	0	0	
1	0	0	0	0	514	1	0	0	0	0	
2	0	0	0	0	514	1	0	0	0	0	
3	0	0	0	0	514	1	0	0	0	0	
4	0	0	0	0	513	0	0	0	0	0	
5	0	0	0	0	512	1	0	0	0	0	
6	0	0	0	0	512	1	0	0	0	0	
7	0	0	0	0	513	2	0	0	0	0	
8	0	0	0	0	514	1	0	0	0	0	
9	0	0	0	0	514	1	0	0	0	0	
10	0	0	0	0	514	1	0	0	0	0	
11	0	0	0	0	514	1	0	0	0	0	
12	0	0	0	0	513	0	0	0	0	0	
13	0	0	0	0	512	1	0	0	0	0	
14	0	0	0	0	513	1	0	0	0	0	
15	0	0	0	0	512	2	0	0	0	0	
0	0	0	0	0	512	1	0	0	0	0	
1	0	0	0	0	511	1	0	0	0	0	
2	0	0	0	0	511	1	0	0	0	0	
3	0	0	0	0	511	1	0	0	0	0	
4	0	0	0	0	512	0	0	0	0	0	
5	0	0	0	0	512	1	0	0	0	0	
6	0	0	0	0	511	1	0	0	0	0	
7	0	0	0	0	511	2	0	0	0	0	
8	0	0	0	0	511	1	0	0	0	0	
9	0	0	0	0	512	1	0	0	0	0	
10	0	0	0	0	513	1	0	0	0	0	
11	0	0	0	0	515	1	0	0	0	0	
12	0	0	0	0	514	1	0	0	0	0	
13	0	0	0	0	514	0	0	0	0	0	
14	0	0	0	0	515	1	0	0	0	0	
15	0	0	0	0	516	2	0	0	0	0	
0	0	0	0	0	516	1	0	0	0	0	
1	0	0	0	0	518	1	0	0	0	0	
2	0	0	0	0	517	1	0	0	0	0	
3	0	0	0	0	516	1	0	0	0	0	
4	0	0	0	0	515	1	0	0	0	0	
5	0	0	0	0	515	0	0	0	0	0	
6	0	0	0	0	514	1	0	0	0	0	
7	0	0	0	0	513	2	0	0	0	0	
8	0	0	0	0	515	1	0	0	0	0	
9	0	0	0	0	515	1	0	0	0	0	
10	0	0	0	0	515	1	0	0	0	0	
11	0	0	0	0	515	1	0	0	0	0	
12	0	0	0	0	516	1	0	0	0	0	
13	0	0	0	0	515	0	0	0	0	0	
14	0	0	0	0	515	1	0	0	0	0	
15	0	0	0	0	515	1	0	0	0	0	
0	0	0	0	0	517	1	0	0	0	0	
1	0	0	0	0	519	1	0	0	0	0	
2	0	0	0	0	519	1	0	0	0	0	
3	0	0	0	0	519	1	0	0	0	0	
4	0	0	0	0	520	1	0	0	0	0	
5	0	0	0	0	520	1	0	0	0	0	
6	0	0	0	0	519	1	0	0	0	0	
7	0	0	0	0	519	1	0	0	0	0	
8	0	0	0	0	517	1	0	0	0	0	
9	0	0	0	0	516	1	0	0	0	0	
10	0	0	0	0	516	1	0	0	0	0	
11	0	0	0	0	516	1	0	0	0	0	
12	0	0	0	0	516	1	0	0	0	0	
13	0	0	0	0	516	1	0	0	0	0	
14	0	0	0	0	516	1	0	0	0	0	
15	0	0	0	0	516	1	0	0	0	0	
0	0	0	0	0	515	1	0	0	0	0	
1	0	0	0	0	515	1	0	0	0	0	
2	0	0	0	0	515	1	0	0	0	0	
3	0	0	0	0	515	1	0	0	0	0	
4	0	0	0	0	514	1	0	0	0	0	
5	0	0	0	0	515	0	0	0	0	0	
6	0	0	0	0	514	1	0	0	0	0	
7	0	0	0	0	514	2	0	0	0	0	
8	0	0	0	0	513	1	0	0	0	0	
9	0	0	0	0	514	1	0	0	0	0	
10	0	0	0	0	514	1	0	0	0	0	
11	0	0	0	0	512	1	0	0	0	0	
12	0	0	0	0	512	1	0	0	0	0	
13	0	0	0	0	510	0	0	0	0	0	
14	0	0	0	0	508	1	0	0	0	0	
15	0	0	0	0	507	2	0	0	0	0	
0	0	0	0	0	507	1	0	0	0	0	
1	0	0	0	0	507	1	0	0	0	0	
2	0	0	0	0	508	1	0	0	0	0	
3	0	0	0	0	507	1	0	0	0	0	
4	0	0	0	0	506	1	0	0	0	0	
5	0	0	0	0	504	1	0	0	0	0	
6	0	0	0	0	504	1	0	0	0	0	
7	0	0	0	0	503	2	0	0	0	0	
8	0	0	0	0	504	1	0	0	0	0	
9	0	0	0	0	503	1	0	0	0	0	
10	0	0	0	0	502	1	0	0	0	0	
11	0	0	0	0	503	1	0	0	0	0	
12	0	0	0	0	504	0	0	0	0	0	
13	0	0	0	0	504	1	0	0	0	0	
14	0	0	0	0	500	1	0	0	0	0	
15	0	0	0	0	499	2	0	0	0	0	
0	0	0	0	0	498	1	0	0	0	0	
1	0	0	0	0	496	1	0	0	0	0	
2	0	0	0	0	496	1	0	0	0	0	
3	0	0	0	0	496	1	0	0	0	0	
4	0	0	0	0	495	0	0	0	0	0	
5	0	0	0	0	494	1	0	0	0	0	
6	0	0	0	0	492	1	0	0	0	0	
7	0	0	0	0	492	2	0	0	0	0	
8	0	0	0	0	493	1	0	0	0	0	
9	0	0	0	0	494	1	0	0	0	0	
10	0	0	0	0	496	1	0	0	0	0	
11	0	0	0	0	496	1	0	0	0	0	
12	0	0	0	0	496	0	0	0	0	0	
13	0	0	0	0	496	1	0	0	0	0	
14	0	0	0	0	497	1	0	0	0	0	
15	0	0	0	0	499	2	0	0	0	0	
0	0	0	0	0	499	1	0	0	0	0	
1	0	0	0	0	499	1	0	0	0	0	
2	0	0	0	0	499	0	0	0	0	0	
3	0	0	0	0	500	1	0	0	0	0	
4	0	0	0	0	500	1	0	0	0	0	
5	0	0	0	0	499	1	0	0	0	0	
6	0	0	0	0	498	1	0	0	0	0	
7	0	0	0	0	498	2	0	0	0	0	
8	0	0	0	0	498	1	0	0	0	0	
9	0	0	0	0	499	1	0	0	0	0	
10	0	0	0	0	498	0	0	0	0	0	
11	0	0	0	0	499	1	0	0	0	0	
12	0	0	0	0	501	1	0	0	0	0	
13	0	0	0	0	502	1	0	0	0	0	
14	0	0	0	0	503	1	0	0	0	0	
15	0	0	0	0	504	2	0	0	0	0	
0	0	0	0	0	507	1	0	0	0	0	
1	0	0	0	0	508	1	0	0	0	0	
2	0	0	0	0	510	0	0	0	0	0	
3	0	0	0	0	512	1	0	0	0	0	
4	0	0	0	0	512	1	0	0	0	0	
5	0	0	0	0	514	1	0	0	0	0	
6	0	0	0	0	515	1	0	0	0	0	
7	0	0	0	0	515	2	0	0	0	0	
8	0	0	0	0	517	1	0	0	0	0	
9	0	0	0	0	521	0	0	0	0	0	
10	0	0	0	0	524	1	0	0	0	0	
11	0	0	0	0	526	1	0	0	0	0	
12	0	0	0	0	527	1	0	0	0	0	
13	0	0	0	0	528	1	0	0	0	0	
14	0	0	0	0	528	1	0	0	0	0	
15	0	0	0	0	529	2	0	0	0	0	
0	0	0	0	0	529	1	0	0	0	0	
1	0	0	0	0	529	0	0	0	0	0	
2	0	0	0	0	529	1	0	0	0	0	
3	0	0	0	0	528	1	0	0	0	0	
4	0	0	0	0	528	1	0	0	0	0	
5	0	0	0	0	528	1	0	0	0	0	
6	0	0	0	0	527	1	0	0	0	0	
7	0	0	0	0	526	2	0	0	0	0	
8	0	0	0	0	525	1	0	0	0	0	
9	0	0	0	0	526	0	0	0	0	0	
10	0	0	0	0	526	1	0	0	0	0	
11	0	0	0	0	527	1	0	0	0	0	
12	0	0	0	0	527	1	0	0	0	0	
13	0	0	0	0	525	1	0	0	0	0	
14	0	0	0	0	524	1	0	0	0	0	
15	0	0	0	0	523	1	0	0	0	0	
0	0	0	0	0	523	1	0	0	0	0	
1	0	0	0	0	523	1	0	0	0	0	
2	0	0	0	0	524	1	0	0	0	0	
3	0	0	0	0	524	1	0	0	0	0	
4	0	0	0	0	525	1	0	0	0	0	
5	0	0	0	0	527	1	0	0	0	0	
6	0	0	0	0	527	1	0	0	0	0	
7	0	0	0	0	528	1	0	0	0	0	
8	0	0	0	0	529	1	0	0	0	0	
9	0	0	0	0	530	1	0	0	0	0	
10	0	0	0	0	531	1	0	0	0	0	
